Used Foils:,cambered_foils
Waterspeed:,0.0
Frequency:,0.8
Heave Amplitude:,38
Pitch Amplitude:,30
Camber Amplitude,90
Pitch Phase,0
Camber Phase,0
Turn Rate,0
Test Duration,10

Time,Heave_pos,Pitch_right,Pitch_left,Power_consumption,Noise
29.1755268573761,57.00,90.00,90.00,724.00,0.00
30.22364068031311,57.28,93.61,86.39,648.00,0.00
30.296621799468994,61.34,103.92,76.08,7484.00,0.00
30.368688821792603,69.91,112.53,67.47,7026.00,0.00
30.440213918685913,81.46,118.03,61.97,9454.00,0.00
30.512240886688232,94.90,120.00,60.00,8206.00,0.00
30.584697723388672,108.54,118.03,61.97,9230.00,0.00
30.65690588951111,120.09,112.53,67.47,6874.00,0.00
30.729201793670654,128.57,104.05,75.95,8316.00,0.00
30.800578832626343,132.72,93.61,86.39,8628.00,0.00
30.87232995033264,131.90,82.83,97.17,3602.00,0.00
30.945014715194702,126.40,73.11,106.89,8038.00,0.00
31.01732301712036,116.63,65.34,114.66,6458.00,0.00
31.089102745056152,104.17,60.89,119.11,9068.00,0.00
31.160838842391968,90.52,60.21,119.79,9712.00,0.00
31.232749700546265,77.45,63.39,116.61,9946.00,0.00
31.305370807647705,66.65,70.02,109.98,11994.00,0.00
31.377288818359375,59.53,79.24,100.76,8742.00,0.00
31.44844079017639,57.00,89.85,90.15,9312.00,0.00
31.521500825881958,59.39,100.48,79.52,10136.00,0.00
31.592803716659546,66.40,109.75,70.25,6724.00,0.00
31.664857864379883,77.11,116.47,63.53,9732.00,0.00
31.736862897872925,90.14,119.75,60.25,9136.00,0.00
31.809659719467163,103.80,119.18,60.82,9378.00,0.00
31.882293939590454,116.32,114.83,65.17,10142.00,0.00
31.955103874206543,126.19,107.14,72.86,10116.00,0.00
32.02664589881897,131.85,97.31,82.69,10276.00,0.00
32.098368883132935,132.75,86.54,93.46,5502.00,0.00
32.17036962509155,128.75,76.21,103.79,4044.00,0.00
32.24235486984253,120.38,67.67,112.33,7808.00,0.00
32.314780950546265,108.72,62.02,117.98,8090.00,0.00
32.38625168800354,95.29,60.00,120.00,9674.00,0.00
32.458444595336914,81.63,61.92,118.08,9484.00,0.00
32.53102469444275,70.05,67.37,112.63,12166.00,0.00
32.60339879989624,61.52,75.81,104.19,10666.00,0.00
32.67452073097229,57.30,86.24,93.76,8382.00,0.00
32.74632501602173,58.01,96.87,83.13,6658.00,0.00
32.81879663467407,63.49,106.77,73.23,8352.00,0.00
32.89214372634888,73.21,114.58,65.42,7890.00,0.00
32.96343398094177,85.46,119.04,60.96,10168.00,0.00
33.034918785095215,99.10,119.82,60.18,8022.00,0.00
33.10753893852234,112.38,116.68,63.32,9736.00,0.00
33.17987298965454,123.35,109.98,70.02,9412.00,0.00
33.25220775604248,130.40,100.90,79.10,9798.00,0.00
33.324049949645996,133.00,90.30,89.70,8556.00,0.00
33.396267890930176,130.61,79.52,100.48,4044.00,0.00
33.468018770217896,123.72,70.36,109.64,6674.00,0.00
33.54037880897522,112.89,63.53,116.47,8110.00,0.00
33.61171197891235,99.86,60.25,119.75,9266.00,0.00
33.68435287475586,86.20,60.82,119.18,9552.00,0.00
33.75634264945984,73.68,65.17,114.83,11328.00,0.00
33.828789949417114,63.92,72.73,107.27,10758.00,0.00
33.9000358581543,58.19,82.54,97.46,9356.00,0.00
33.97253084182739,57.23,93.31,86.69,5974.00,0.00
34.04427695274353,61.16,103.65,76.35,8664.00,0.00
34.11675691604614,69.62,112.33,67.67,6020.00,0.00
34.188742876052856,81.10,117.92,62.08,9624.00,0.00
34.26046586036682,94.52,120.00,60.00,9860.00,0.00
34.33339786529541,108.19,118.14,61.86,9162.00,0.00
34.40582871437073,119.81,112.73,67.27,9402.00,0.00
34.477999687194824,128.48,104.19,75.81,9618.00,0.00
34.54932975769043,132.68,93.91,86.09,8596.00,0.00
34.62175488471985,131.99,83.12,96.88,2874.00,0.00
34.69403290748596,126.51,73.23,106.77,6954.00,0.00
34.76641893386841,116.79,65.42,114.58,7894.00,0.00
34.838273763656616,104.54,60.96,119.04,7110.00,0.00
34.90980076789856,90.90,60.18,119.82,9048.00,0.00
34.98205375671387,77.62,63.32,116.68,9942.00,0.00
35.05492687225342,66.91,69.80,110.20,10338.00,0.00
35.126850843429565,59.60,79.10,100.90,11148.00,0.00
35.197908878326416,57.00,89.70,90.30,8788.00,0.00
35.2703218460083,59.33,100.34,79.66,7274.00,0.00
35.3422577381134,66.28,109.64,70.36,9142.00,0.00
35.414477825164795,76.94,116.40,63.60,7360.00,0.00
35.48618483543396,89.95,119.73,60.27,9886.00,0.00
35.55849289894104,103.62,119.22,60.78,8516.00,0.00
35.63047194480896,116.16,114.92,65.08,9486.00,0.00
35.703656911849976,126.08,107.27,72.73,10400.00,0.00
35.77487897872925,131.76,97.61,82.39,9264.00,0.00
35.84714388847351,132.77,86.69,93.31,7386.00,0.00
35.91934370994568,128.84,76.35,103.65,7648.00,0.00
35.99169087409973,120.52,67.77,112.23,8022.00,0.00
36.06388878822327,108.90,62.08,117.92,9928.00,0.00
36.13561773300171,95.29,60.00,120.00,7908.00,0.00
36.20767784118652,81.81,61.86,118.14,9358.00,0.00
36.280563831329346,70.19,67.27,112.73,12088.00,0.00
36.35206174850464,61.52,75.81,104.19,9906.00,0.00
36.42383575439453,57.32,86.09,93.91,9736.00,0.00
36.4957218170166,58.01,96.87,83.12,4044.00,0.00
36.568376779556274,63.49,106.77,73.23,8054.00,0.00
36.64024591445923,73.05,114.49,65.51,7806.00,0.00
36.712257623672485,85.27,119.00,61.00,9556.00,0.00
36.78407382965088,99.10,119.82,60.18,9438.00,0.00
36.85739064216614,112.21,116.75,63.25,8814.00,0.00
36.92908477783203,123.09,110.20,69.80,9748.00,0.00
37.001415729522705,130.40,100.90,79.10,9034.00,0.00
37.07345271110535,133.00,90.30,89.70,7956.00,0.00
37.14586281776428,130.67,79.66,100.34,6006.00,0.00
37.218286752700806,123.72,70.36,109.64,5678.00,0.00
37.29007577896118,113.06,63.60,116.40,8452.00,0.00
37.36154770851135,99.86,60.25,119.75,9712.00,0.00
37.433613777160645,86.38,60.78,119.22,8812.00,0.00
37.50653791427612,73.68,65.17,114.83,10912.00,0.00
37.57797980308533,63.92,72.73,107.27,8234.00,0.00
37.64957284927368,58.19,82.54,97.46,10178.00,0.00
37.7213408946991,57.23,93.31,86.69,5686.00,0.00
37.79370975494385,61.16,103.65,76.35,5616.00,0.00
37.865931034088135,69.34,112.13,67.87,9526.00,0.00
37.93780994415283,81.10,117.92,62.08,7022.00,0.00
38.01015090942383,94.52,120.00,60.00,9722.00,0.00
38.08262085914612,108.01,118.19,61.81,9552.00,0.00
38.15542674064636,119.81,112.73,67.27,8356.00,0.00
38.22791290283203,128.48,104.19,75.81,11266.00,0.00
38.29915475845337,132.68,93.91,86.09,7930.00,0.00
38.37144660949707,131.99,83.12,96.87,3496.00,0.00
38.44409489631653,126.51,73.23,106.77,5934.00,0.00
38.51635980606079,116.79,65.42,114.58,5728.00,0.00
38.58846592903137,104.54,60.96,119.04,8824.00,0.00
38.659992694854736,90.71,60.19,119.81,8828.00,0.00
38.73206400871277,77.62,63.32,116.68,9782.00,0.00
38.80508899688721,66.91,69.80,110.20,11522.00,0.00
38.876214027404785,59.60,79.10,100.90,9666.00,0.00
38.947614908218384,57.00,89.70,90.30,8700.00,0.00
39.020673751831055,59.33,100.34,79.66,6556.00,0.00
39.09264588356018,66.28,109.64,70.36,7730.00,0.00
