Used Foils:,cambered_foils
Waterspeed:,0.0
Frequency:,0.8
Heave Amplitude:,38
Pitch Amplitude:,20
Camber Amplitude,90
Pitch Phase,0
Camber Phase,0
Turn Rate,0
Test Duration,10

Time,Heave_pos,Pitch_right,Pitch_left,Power_consumption,Noise
4.168935775756836,55.00,90.00,90.00,204.00,0.00
4.241365909576416,59.46,97.08,82.92,8896.00,0.00
4.313820838928223,66.53,103.25,76.75,8966.00,0.00
4.386308670043945,77.28,107.69,72.31,5994.00,0.00
4.458226919174194,90.33,109.85,70.15,10810.00,0.00
4.530131816864014,103.99,109.43,70.57,9912.00,0.00
4.602755784988403,116.63,106.44,73.56,10922.00,0.00
4.6746649742126465,126.19,101.43,78.57,8958.00,0.00
4.746035814285278,131.85,94.88,85.12,8680.00,0.00
4.81820273399353,132.72,87.59,92.41,5814.00,0.00
4.890255689620972,128.66,80.72,99.28,7108.00,0.00
4.962717771530151,120.38,75.11,104.89,9840.00,0.00
5.035466909408569,108.54,71.31,108.69,12206.00,0.00
5.107432842254639,95.10,70.00,110.00,11514.00,0.00
5.179304838180542,81.63,71.28,108.72,10492.00,0.00
5.2516868114471436,69.91,74.98,105.02,11626.00,0.00
5.323645830154419,61.34,80.72,99.28,10846.00,0.00
5.39488673210144,57.30,87.49,92.51,10382.00,0.00
5.466657638549805,58.06,94.68,85.32,5442.00,0.00
5.539245843887329,63.60,101.26,78.74,8100.00,0.00
5.611387729644775,73.21,106.38,73.62,10636.00,0.00
5.683456897735596,85.64,109.38,70.62,11080.00,0.00
5.755951881408691,99.48,109.86,70.14,11010.00,0.00
5.828240871429443,112.38,107.79,72.21,11164.00,0.00
5.900445938110352,123.35,103.32,76.68,9454.00,0.00
5.971765995025635,130.47,97.18,82.82,8668.00,0.00
6.043803930282593,133.00,90.00,90.00,7442.00,0.00
6.115503787994385,130.61,83.01,96.99,6712.00,0.00
6.188297986984253,123.60,76.83,103.17,6586.00,0.00
6.261199712753296,112.72,72.31,107.69,9470.00,0.00
6.332887649536133,99.86,70.16,109.84,11550.00,0.00
6.405075788497925,86.01,70.57,109.43,10578.00,0.00
6.477275848388672,73.52,73.50,106.50,11306.00,0.00
6.5488808155059814,63.81,78.57,101.43,11406.00,0.00
6.620562791824341,58.15,85.12,94.88,10922.00,0.00
6.692237615585327,57.28,92.41,87.59,8216.00,0.00
6.764460802078247,61.25,99.19,80.81,5216.00,0.00
6.836813688278198,69.62,104.89,75.11,9794.00,0.00
6.909253835678101,81.28,108.65,71.35,9234.00,0.00
6.981372833251953,94.90,110.00,70.00,10600.00,0.00
7.053430795669556,108.19,108.76,71.24,9846.00,0.00
7.126408815383911,120.09,105.02,74.98,10082.00,0.00
7.198287725448608,128.57,99.37,80.63,10574.00,0.00
7.269850730895996,132.70,92.51,87.49,7324.00,0.00
7.34188175201416,131.94,85.32,94.68,4342.00,0.00
7.414439916610718,126.40,78.74,101.26,4918.00,0.00
7.486828804016113,116.79,73.62,106.38,8356.00,0.00
7.559201002120972,104.36,70.62,109.38,11544.00,0.00
7.6308228969573975,90.52,70.14,109.86,11502.00,0.00
7.703312873840332,77.62,72.21,107.79,11400.00,0.00
7.775328874588013,66.65,76.68,103.32,12812.00,0.00
7.846888780593872,59.53,82.82,97.18,10188.00,0.00
7.918531656265259,57.00,90.00,90.00,9168.00,0.00
7.990362882614136,59.39,96.99,83.01,7638.00,0.00
8.062724828720093,66.40,103.17,76.83,7900.00,0.00
8.135351657867432,77.28,107.69,72.31,10916.00,0.00
8.207855701446533,90.14,109.84,70.16,10614.00,0.00
8.28054666519165,103.99,109.43,70.57,10178.00,0.00
8.352059841156006,116.48,106.50,73.50,9886.00,0.00
8.42423677444458,126.19,101.43,78.57,9756.00,0.00
8.495954751968384,131.85,94.88,85.12,9398.00,0.00
8.568127870559692,132.72,87.59,92.41,5872.00,0.00
8.639811754226685,128.75,80.81,99.19,8016.00,0.00
8.712410688400269,120.38,75.11,104.89,7852.00,0.00
8.78448486328125,108.54,71.31,108.69,9828.00,0.00
8.857271671295166,95.29,70.00,110.00,11574.00,0.00
8.929024934768677,81.64,71.28,108.72,10984.00,0.00
9.001535892486572,69.91,74.98,105.02,12520.00,0.00
9.073333978652954,61.34,80.72,99.28,10418.00,0.00
9.14442491531372,57.30,87.49,92.51,9286.00,0.00
9.216487884521484,58.10,94.78,85.22,6656.00,0.00
9.288833618164062,63.71,101.35,78.65,5938.00,0.00
9.360783815383911,73.21,106.38,73.62,9166.00,0.00
9.433703899383545,85.64,109.38,70.62,10706.00,0.00
9.505490779876709,99.48,109.86,70.14,9680.00,0.00
9.578276872634888,112.38,107.79,72.21,10446.00,0.00
9.650458812713623,123.35,103.32,76.68,7382.00,0.00
9.722136735916138,130.47,97.18,82.82,9604.00,0.00
9.794012784957886,133.00,90.10,89.90,7960.00,0.00
9.86585283279419,130.61,83.01,96.99,4420.00,0.00
9.938901901245117,123.47,76.75,103.25,8016.00,0.00
10.010764598846436,112.72,72.31,107.69,8104.00,0.00
10.083307027816772,99.67,70.15,109.85,10702.00,0.00
10.155503749847412,86.01,70.57,109.43,10732.00,0.00
10.227421760559082,73.37,73.56,106.44,11370.00,0.00
10.299806833267212,63.81,78.57,101.43,12240.00,0.00
10.37168574333191,58.10,85.22,94.78,10146.00,0.00
10.442894697189331,57.28,92.41,87.59,7510.00,0.00
10.514410972595215,61.25,99.19,80.81,9896.00,0.00
10.587665796279907,69.76,104.95,75.05,7894.00,0.00
10.659896850585938,81.46,108.69,71.31,11360.00,0.00
10.731929779052734,94.90,110.00,70.00,10224.00,0.00
10.803936004638672,108.37,108.72,71.28,9964.00,0.00
10.877118825912476,120.24,104.95,75.05,10338.00,0.00
10.948583841323853,128.66,99.28,80.72,8766.00,0.00
11.020598649978638,132.72,92.41,87.59,8484.00,0.00
11.092676877975464,131.90,85.22,94.78,2108.00,0.00
11.16497278213501,126.29,78.65,101.35,7072.00,0.00
11.237469911575317,116.63,73.56,106.44,8922.00,0.00
11.310053825378418,104.17,70.59,109.41,10404.00,0.00
11.381692886352539,90.33,70.15,109.85,11004.00,0.00
11.45414662361145,77.45,72.26,107.74,10508.00,0.00
11.526285648345947,66.53,76.75,103.25,11476.00,0.00
11.597931861877441,59.46,82.92,97.08,10188.00,0.00
11.669314622879028,57.00,90.00,90.00,7422.00,0.00
11.7411949634552,59.46,97.08,82.92,7688.00,0.00
11.813400745391846,66.53,103.25,76.75,9978.00,0.00
11.885495662689209,77.28,107.69,72.31,8552.00,0.00
11.9581880569458,90.33,109.85,70.15,11450.00,0.00
12.030529737472534,103.99,109.43,70.57,9608.00,0.00
12.102912902832031,116.63,106.44,73.56,10372.00,0.00
12.174835920333862,126.29,101.35,78.65,9408.00,0.00
12.246409893035889,131.90,94.78,85.22,8618.00,0.00
12.31845474243164,132.70,87.49,92.51,7110.00,0.00
12.390791893005371,128.66,80.72,99.28,6734.00,0.00
12.463523864746094,120.24,75.05,104.95,8490.00,0.00
12.536306858062744,108.36,71.28,108.72,10496.00,0.00
12.607805967330933,95.10,70.00,110.00,11368.00,0.00
12.680258750915527,81.46,71.31,108.69,10578.00,0.00
12.75236201286316,69.76,75.05,104.95,12030.00,0.00
12.823824882507324,61.34,80.72,99.28,11062.00,0.00
12.89580488204956,57.28,87.59,92.41,10512.00,0.00
12.967326879501343,58.15,94.88,85.12,4128.00,0.00
13.04003381729126,63.81,101.43,78.57,8290.00,0.00
13.11220097541809,73.37,106.44,73.56,7690.00,0.00
