Used Foils:,wide_foils_winglets
Waterspeed:,0.0
Frequency:,0.5
Heave Amplitude:,38
Pitch Amplitude:,25
Camber Amplitude,90
Pitch Phase,0
Camber Phase,0
Turn Rate,0
Test Duration,10

Time,Heave_pos,Pitch_right,Pitch_left,Power_consumption,Noise
108.14862895011902,57.00,90.00,90.00,368.00,0.00
108.2207989692688,57.99,95.68,84.32,1504.00,0.00
108.29319596290588,60.87,101.00,79.00,1382.00,0.00
108.3650951385498,65.42,105.69,74.31,2560.00,0.00
108.43720817565918,71.52,109.66,70.34,2306.00,0.00
108.50920820236206,78.93,112.65,67.35,2314.00,0.00
108.58080410957336,87.06,114.45,65.55,2114.00,0.00
108.65312814712524,95.48,115.00,65.00,2216.00,0.00
108.72486710548401,104.10,114.27,65.73,318.00,0.00
108.79731106758118,112.15,112.31,67.69,3978.00,0.00
108.8700110912323,119.22,109.26,70.74,3394.00,0.00
108.94197821617126,125.24,105.14,74.86,2464.00,0.00
109.01380610466003,129.63,100.29,79.71,4614.00,0.00
109.08543419837952,132.26,94.92,85.08,2126.00,0.00
109.15687799453735,132.98,89.29,90.71,432.00,0.00
109.22844314575195,131.78,83.71,96.29,576.00,0.00
109.30160522460938,128.75,78.51,101.49,1602.00,0.00
109.37367701530457,123.90,73.76,106.24,3694.00,0.00
109.44612717628479,117.62,69.91,110.09,4054.00,0.00
109.5180242061615,110.20,67.09,112.91,8442.00,0.00
109.5899109840393,102.00,65.43,114.57,9520.00,0.00
109.66177201271057,93.45,65.02,114.98,7202.00,0.00
109.73341631889343,84.86,65.91,114.09,8622.00,0.00
109.80539917945862,77.01,67.98,112.02,7534.00,0.00
109.87737321853638,69.96,71.20,108.80,9038.00,0.00
109.94942808151245,64.12,75.43,104.57,8850.00,0.00
110.02130198478699,59.98,80.29,99.71,6702.00,0.00
110.09299397468567,57.57,85.70,94.30,1292.00,0.00
110.1648690700531,57.06,91.41,88.59,1246.00,0.00
110.23623013496399,58.48,96.90,83.10,538.00,0.00
110.30896306037903,61.76,102.11,77.89,766.00,0.00
110.38123226165771,66.73,106.71,73.29,1590.00,0.00
110.45348191261292,73.05,110.41,69.59,2848.00,0.00
110.5246913433075,80.68,113.16,66.84,642.00,0.00
110.59728407859802,88.94,114.68,65.32,2916.00,0.00
110.6693480014801,97.39,114.95,65.05,2704.00,0.00
110.74216318130493,105.95,113.94,66.06,3264.00,0.00
110.81445717811584,113.83,111.72,68.28,4676.00,0.00
110.88635420799255,120.84,108.33,71.67,2982.00,0.00
110.95863914489746,126.36,104.12,75.88,2330.00,0.00
111.03040719032288,130.42,99.06,80.94,3584.00,0.00
111.10186910629272,132.60,93.60,86.40,1664.00,0.00
111.17367696762085,132.88,88.04,91.96,452.00,0.00
111.24691915512085,131.21,82.42,97.58,3332.00,0.00
111.31836795806885,127.71,77.27,102.73,990.00,0.00
111.39082598686218,122.62,72.83,107.17,5280.00,0.00
111.46277022361755,115.96,69.15,110.85,6328.00,0.00
111.53548908233643,108.32,66.59,113.41,9368.00,0.00
111.60702729225159,100.00,65.22,114.78,7828.00,0.00
111.67876505851746,91.42,65.11,114.89,6554.00,0.00
111.75074410438538,82.92,66.30,113.70,8288.00,0.00
111.82256197929382,75.25,68.64,111.36,7862.00,0.00
111.89459204673767,68.47,72.10,107.90,8710.00,0.00
111.96652913093567,62.98,76.54,103.46,8224.00,0.00
112.03838014602661,59.21,81.61,98.39,6570.00,0.00
112.11015701293945,57.27,87.02,92.98,2642.00,0.00
112.1822099685669,57.22,92.67,87.33,1048.00,0.00
112.254319190979,59.13,98.25,81.75,1688.00,0.00
112.32652306556702,62.79,103.26,76.74,2438.00,0.00
112.39856314659119,68.13,107.68,72.32,2976.00,0.00
112.47081708908081,74.94,111.23,68.77,1406.00,0.00
112.54268002510071,82.58,113.63,66.37,1406.00,0.00
112.61496496200562,90.95,114.86,65.14,2680.00,0.00
112.68606615066528,99.53,114.82,65.18,832.00,0.00
112.75868320465088,107.87,113.52,66.48,3230.00,0.00
112.83139514923096,115.56,111.02,68.98,4624.00,0.00
112.90373396873474,122.29,107.40,72.60,2680.00,0.00
112.97569298744202,127.46,103.00,77.00,2606.00,0.00
113.04739093780518,131.10,97.80,82.20,3762.00,0.00
113.11941289901733,132.84,92.27,87.73,2382.00,0.00
113.19140601158142,132.64,86.56,93.44,1318.00,0.00
113.26354503631592,130.55,81.16,98.84,4174.00,0.00
113.33609318733215,126.63,76.14,103.86,1494.00,0.00
113.40841913223267,121.01,71.78,108.22,6564.00,0.00
113.48037600517273,114.24,68.44,111.56,7046.00,0.00
113.55268406867981,106.29,66.13,113.87,7952.00,0.00
113.62412428855896,97.86,65.07,114.93,7016.00,0.00
113.69605016708374,89.41,65.27,114.73,7002.00,0.00
113.76806020736694,81.01,66.76,113.24,7562.00,0.00
113.84034705162048,73.44,69.41,110.59,6498.00,0.00
113.91247010231018,66.97,73.12,106.88,8136.00,0.00
113.98436307907104,61.93,77.68,102.32,7350.00,0.00
114.05603194236755,58.58,82.87,97.13,5632.00,0.00
114.12826800346375,57.07,88.51,91.49,2418.00,0.00
114.20017504692078,57.51,94.07,85.93,1020.00,0.00
114.27120923995972,59.85,99.49,80.51,956.00,0.00
114.34434008598328,63.98,104.44,75.56,1864.00,0.00
114.41620397567749,69.69,108.65,71.35,1868.00,0.00
114.48822402954102,76.69,111.91,68.09,2376.00,0.00
114.56029796600342,84.63,114.05,65.95,2274.00,0.00
114.63260102272034,93.09,114.97,65.03,2670.00,0.00
114.70463109016418,101.65,114.61,65.39,714.00,0.00
114.77733516693115,109.98,112.97,67.03,4028.00,0.00
114.84967613220215,117.34,110.23,69.77,3844.00,0.00
114.92171907424927,123.74,106.36,73.64,2704.00,0.00
114.99377298355103,128.58,101.70,78.30,3330.00,0.00
115.06505489349365,131.72,96.45,83.55,2084.00,0.00
115.13668012619019,132.98,90.86,89.14,882.00,0.00
115.20866298675537,132.30,85.24,94.76,528.00,0.00
115.28215718269348,129.68,79.78,100.22,1678.00,0.00
115.35468912124634,125.39,74.99,105.01,2288.00,0.00
115.42631006240845,119.50,70.89,109.11,6150.00,0.00
115.49857997894287,112.25,67.72,112.28,7844.00,0.00
115.5712502002716,104.33,65.77,114.23,11036.00,0.00
115.64247703552246,95.72,65.00,115.00,7364.00,0.00
115.7145791053772,87.18,65.54,114.46,7100.00,0.00
115.78657507896423,79.04,67.31,112.69,6148.00,0.00
115.85850119590759,71.71,70.25,109.75,6678.00,0.00
115.93107032775879,65.49,74.25,105.75,9424.00,0.00
116.0025851726532,60.93,78.93,101.07,7160.00,0.00
116.07396817207336,58.02,84.24,95.76,4038.00,0.00
116.14598822593689,57.00,89.84,90.16,1672.00,0.00
116.2174162864685,57.94,95.53,84.47,558.00,0.00
116.29081702232361,60.72,100.79,79.21,4018.00,0.00
116.36286425590515,65.27,105.57,74.43,1354.00,0.00
116.43482112884521,71.43,109.61,70.39,2972.00,0.00
116.50677132606506,78.60,112.55,67.45,2418.00,0.00
116.57869911193848,86.71,114.40,65.60,1636.00,0.00
116.65045189857483,95.36,115.00,65.00,2490.00,0.00
116.723304271698,103.75,114.33,65.67,3268.00,0.00
116.79581117630005,111.93,112.38,67.62,3474.00,0.00
116.86816310882568,119.13,109.31,70.69,1616.00,0.00
116.94009804725647,125.10,105.26,74.74,2982.00,0.00
117.0126280784607,129.53,100.43,79.57,1478.00,0.00
117.08375811576843,132.23,94.99,85.01,1370.00,0.00
