Used Foils:,stiff_foils
Waterspeed:,0.0
Frequency:,0.7
Heave Amplitude:,38
Pitch Amplitude:,15
Camber Amplitude,90
Pitch Phase,0
Camber Phase,0
Turn Rate,0
Test Duration,10

Time,Heave_pos,Pitch_right,Pitch_left,Power_consumption,Noise
290.2454159259796,57.00,90.00,90.00,626.00,0.00
290.3177537918091,58.94,94.73,85.27,1504.00,0.00
290.3893949985504,64.47,98.93,81.07,4312.00,0.00
290.4620590209961,72.90,102.20,77.80,2808.00,0.00
290.53393602371216,83.62,104.31,75.69,7336.00,0.00
290.60634088516235,95.64,105.00,75.00,4352.00,0.00
290.67864084243774,107.29,104.19,75.81,4428.00,0.00
290.7504668235779,118.01,101.94,78.06,5642.00,0.00
290.8224558830261,126.28,98.52,81.48,3962.00,0.00
290.89427495002747,131.44,94.25,85.75,2372.00,0.00
290.9655587673187,132.99,89.62,90.38,430.00,0.00
291.0381488800049,130.75,84.91,95.09,5774.00,0.00
291.10997891426086,124.95,80.77,99.23,4988.00,0.00
291.1828398704529,116.32,77.58,102.42,5574.00,0.00
291.2547688484192,105.30,75.56,104.44,4564.00,0.00
291.3264009952545,93.40,75.01,104.99,7716.00,0.00
291.3981599807739,81.81,75.93,104.07,7662.00,0.00
291.4701898097992,71.24,78.29,101.71,8710.00,0.00
291.54132103919983,63.19,81.80,98.20,6032.00,0.00
291.61363196372986,58.34,86.05,93.95,6212.00,0.00
291.6849868297577,57.06,90.82,89.18,776.00,0.00
291.7575349807739,59.59,95.44,84.56,5070.00,0.00
291.82946395874023,65.54,99.47,80.53,6376.00,0.00
291.9016959667206,74.48,102.62,77.38,4752.00,0.00
291.9738268852234,85.46,104.52,75.48,6728.00,0.00
292.04579496383667,97.55,104.97,75.03,5688.00,0.00
292.1183681488037,109.08,103.93,76.07,6828.00,0.00
292.1902620792389,119.50,101.47,78.53,6006.00,0.00
292.2619218826294,127.33,97.89,82.11,5154.00,0.00
292.33395886421204,131.90,93.58,86.42,3018.00,0.00
292.40564584732056,132.88,88.80,91.20,504.00,0.00
292.4781880378723,130.05,84.21,95.79,5924.00,0.00
292.5502588748932,123.85,80.24,99.76,7504.00,0.00
292.6229798793793,114.57,77.14,102.86,6524.00,0.00
292.6949350833893,103.45,75.38,104.62,7534.00,0.00
292.7665948867798,91.50,75.06,104.94,6420.00,0.00
292.83876490592957,79.89,76.24,103.76,6642.00,0.00
292.91057896614075,69.78,78.78,101.22,8310.00,0.00
292.9822428226471,62.18,82.44,97.56,8156.00,0.00
293.0541069507599,57.85,86.85,93.15,5424.00,0.00
293.12549591064453,57.21,91.57,88.43,636.00,0.00
293.19766187667847,60.33,96.14,83.86,5122.00,0.00
293.27017188072205,66.78,100.05,79.95,5886.00,0.00
293.3421928882599,76.26,103.05,76.95,5748.00,0.00
293.4140639305115,87.48,104.70,75.30,6960.00,0.00
293.4858388900757,99.29,104.90,75.10,4220.00,0.00
293.5585958957672,110.98,103.61,76.39,6420.00,0.00
293.6307759284973,120.93,100.97,79.03,6556.00,0.00
293.70280408859253,128.29,97.23,82.77,3506.00,0.00
293.7746489048004,132.34,92.78,87.22,1718.00,0.00
293.8465988636017,132.68,88.05,91.95,1264.00,0.00
293.9187090396881,129.27,83.52,96.48,2536.00,0.00
293.9913990497589,122.45,79.63,100.37,7782.00,0.00
294.06334710121155,112.91,76.77,103.23,6026.00,0.00
294.1353290081024,101.58,75.23,104.77,8398.00,0.00
294.2066230773926,89.60,75.15,104.85,8196.00,0.00
294.27878189086914,78.00,76.58,103.42,7950.00,0.00
294.35085916519165,68.27,79.34,100.66,5856.00,0.00
294.4225699901581,61.26,83.10,96.90,6494.00,0.00
294.49440693855286,57.47,87.65,92.35,4280.00,0.00
294.5659830570221,57.48,92.38,87.62,576.00,0.00
294.6382417678833,61.15,96.82,83.18,2966.00,0.00
294.71079683303833,68.21,100.64,79.36,5348.00,0.00
294.78283286094666,77.94,103.40,76.60,5940.00,0.00
294.85494208335876,89.36,104.83,75.17,6200.00,0.00
294.92714500427246,101.35,104.79,75.21,5142.00,0.00
294.9991419315338,112.84,103.24,76.76,6056.00,0.00
295.07146883010864,122.29,100.44,79.56,6632.00,0.00
295.14304184913635,129.24,96.51,83.49,2710.00,0.00
295.2150790691376,132.67,91.97,88.03,1898.00,0.00
295.2868139743805,132.38,87.31,92.69,594.00,0.00
295.3592269420624,128.32,82.79,97.21,1920.00,0.00
295.4321711063385,120.98,79.05,100.95,8824.00,0.00
295.5038299560547,111.05,76.40,103.60,7996.00,0.00
295.57535696029663,99.53,75.11,104.89,8504.00,0.00
295.6473009586334,87.55,75.29,104.71,5544.00,0.00
295.72010493278503,76.17,76.97,103.03,7258.00,0.00
295.7916769981384,66.94,79.88,100.12,8136.00,0.00
295.86331605911255,60.36,83.84,96.16,5414.00,0.00
295.9349479675293,57.22,88.40,91.60,2772.00,0.00
296.00659680366516,57.83,93.12,86.88,194.00,0.00
296.0787789821625,62.15,97.54,82.46,4364.00,0.00
296.1516077518463,69.73,101.20,78.80,5478.00,0.00
296.2236099243164,79.67,103.72,76.28,6518.00,0.00
296.29519295692444,91.42,104.93,75.07,6138.00,0.00
296.3678369522095,103.38,104.63,75.37,5524.00,0.00
296.4401638507843,114.51,102.87,77.13,5976.00,0.00
296.5117290019989,123.69,99.83,80.17,6744.00,0.00
296.58416175842285,130.09,95.76,84.24,3706.00,0.00
296.6558289527893,132.89,91.16,88.84,596.00,0.00
296.72836208343506,131.96,86.51,93.49,4476.00,0.00
296.80023980140686,127.27,82.08,97.92,4004.00,0.00
296.8731439113617,119.42,78.51,101.49,7222.00,0.00
296.9450738430023,109.14,76.08,103.92,7966.00,0.00
297.01654291152954,97.46,75.03,104.97,8726.00,0.00
297.08875489234924,85.53,75.47,104.53,7970.00,0.00
297.160502910614,74.54,77.36,102.64,6698.00,0.00
297.2321517467499,65.58,80.50,99.50,7818.00,0.00
297.30420684814453,59.56,84.59,95.41,5784.00,0.00
297.3761670589447,57.05,89.22,90.78,3142.00,0.00
297.4475290775299,58.32,93.92,86.08,292.00,0.00
297.5199718475342,63.24,98.24,81.76,4008.00,0.00
297.59214901924133,71.18,101.69,78.31,5744.00,0.00
297.66432785987854,81.75,104.06,75.94,6232.00,0.00
297.73624992370605,93.50,104.99,75.01,6492.00,0.00
297.809287071228,105.56,104.41,75.59,4712.00,0.00
297.88177704811096,116.26,102.43,77.57,4870.00,0.00
297.9533751010895,125.11,99.15,80.85,5810.00,0.00
298.0251169204712,130.83,94.99,85.01,4312.00,0.00
298.0966360569,132.99,90.41,89.59,914.00,0.00
298.16875982284546,131.37,85.65,94.35,246.00,0.00
298.2410571575165,126.13,81.40,98.60,5154.00,0.00
298.31337308883667,117.93,78.04,101.96,7154.00,0.00
298.38576889038086,107.20,75.79,104.21,7400.00,0.00
298.4569947719574,95.38,75.00,105.00,7730.00,0.00
298.5298340320587,83.53,75.70,104.30,7360.00,0.00
298.601979970932,72.82,77.82,102.18,6118.00,0.00
298.67363476753235,64.31,81.15,98.85,6108.00,0.00
298.74500489234924,58.81,85.43,94.57,4850.00,0.00
298.8170049190521,57.00,90.04,89.96,1422.00,0.00
298.8886511325836,58.92,94.71,85.29,430.00,0.00
298.9609670639038,64.43,98.91,81.09,4050.00,0.00
299.0337338447571,72.97,102.22,77.78,6524.00,0.00
299.10565400123596,83.71,104.32,75.68,2360.00,0.00
299.17772912979126,95.57,105.00,75.00,4656.00,0.00
