Used Parameters:
Used Foils:,stiff_foils
Waterspeed:,0.0
Frequency:,0.8
Heave Amplitude:,40
Pitch Amplitude:,30
Camber Amplitude,90
Pitch Phase,0
Camber Phase,0
Turn Rate,0
Test Duration,10

Statistical Evaluation:
Time,Heave_pos,Pitch_right,Pitch_left,Power_consumption,Noise,Fx,Fz,Mx,My,Mz,Inflow_velocity,Angle_of_attack,Efficiency
average,95.774,91.403,88.597,5796.592,0.000,1.078,12.300,1.516,-0.281,-0.007,0.174,91.303,0.000
max,135.000,120.000,120.000,10018.000,0.000,2.520,41.580,6.650,0.140,0.050,0.280,119.900,0.002
min,55.000,60.000,60.000,1252.000,0.000,-0.540,0.110,-0.520,-0.630,-0.090,0.000,59.900,-0.000
std. dev,28.643,21.106,21.106,2251.963,0.000,0.907,12.690,2.300,0.216,0.033,0.087,21.106,0.000

Complete Data:
Time,Heave_pos,Pitch_right,Pitch_left,Power_consumption,Noise,Fx,Fz,Mx,My,Mz,Inflow_velocity,Angle_of_attack,Efficiency
30.188,95.300,105.000,75.000,3310.000,0.000,-0.040,30.610,5.490,-0.030,-0.000,0.136,104.900,-0.000
30.261,102.590,104.730,75.270,4536.000,0.000,-0.040,30.610,5.490,-0.030,-0.000,0.139,104.630,-0.000
30.333,109.540,103.970,76.030,2644.000,0.000,-0.040,30.610,5.490,-0.030,-0.000,0.134,103.870,-0.000
30.405,116.010,102.760,77.240,1992.000,0.000,0.100,29.730,5.050,-0.200,-0.020,0.124,102.660,0.000
30.477,121.790,101.140,78.860,820.000,0.000,0.100,29.730,5.050,-0.200,-0.020,0.112,101.040,0.000
30.549,126.760,99.120,80.880,3146.000,0.000,0.100,29.730,5.050,-0.200,-0.020,0.096,99.020,0.000
30.621,130.570,96.860,83.140,1308.000,0.000,0.410,28.090,4.930,-0.120,-0.030,0.073,96.760,0.000
30.693,133.280,94.350,85.650,1200.000,0.000,0.410,28.090,4.930,-0.120,-0.030,0.052,94.250,0.000
30.765,134.740,91.690,88.310,2306.000,0.000,0.240,29.200,5.240,-0.060,-0.010,0.028,91.590,0.000
30.837,134.910,88.980,91.020,652.000,0.000,0.240,29.200,5.240,-0.060,-0.010,0.003,88.880,0.000
30.908,133.770,86.310,93.690,910.000,0.000,0.240,29.200,5.240,-0.060,-0.010,0.022,86.210,0.000
30.981,131.360,83.750,96.250,3818.000,0.000,0.180,29.960,5.400,-0.040,-0.010,0.046,83.650,0.000
31.053,127.830,81.430,98.570,3648.000,0.000,0.180,29.960,5.400,-0.040,-0.010,0.068,81.330,0.000
31.125,123.110,79.330,100.670,4928.000,0.000,0.180,29.960,5.400,-0.040,-0.010,0.090,79.230,0.000
31.197,117.520,77.600,102.400,2284.000,0.000,0.080,30.920,5.490,-0.050,-0.000,0.108,77.500,0.000
31.270,111.120,76.270,103.730,3912.000,0.000,0.080,30.920,5.490,-0.050,-0.000,0.122,76.170,0.000
31.342,104.360,75.420,104.580,3978.000,0.000,0.090,32.420,5.500,-0.050,0.000,0.130,75.320,0.000
31.413,97.210,75.020,104.980,3222.000,0.000,0.090,32.420,5.500,-0.050,0.000,0.139,74.920,0.000
31.485,89.890,75.120,104.880,1144.000,0.000,0.090,32.420,5.500,-0.050,0.000,0.141,75.020,0.000
31.557,82.930,75.700,104.300,1534.000,0.000,0.590,33.080,5.450,-0.080,0.010,0.134,75.600,0.000
31.629,76.260,76.750,103.250,3198.000,0.000,0.590,33.080,5.450,-0.080,0.010,0.128,76.650,0.000
31.701,70.130,78.250,101.750,2582.000,0.000,0.550,37.760,6.200,-0.140,0.020,0.119,78.150,0.000
31.773,64.960,80.090,99.910,3348.000,0.000,0.550,37.760,6.200,-0.140,0.020,0.100,79.990,0.000
31.844,60.700,82.280,97.720,2424.000,0.000,0.550,37.760,6.200,-0.140,0.020,0.082,82.180,0.000
31.916,57.520,84.760,95.240,764.000,0.000,0.360,38.150,6.460,-0.070,-0.000,0.062,84.660,0.000
31.988,55.640,87.340,92.660,1282.000,0.000,0.360,38.150,6.460,-0.070,-0.000,0.036,87.240,0.000
33.036,55.320,93.760,86.240,1422.000,0.000,-0.030,36.690,6.550,-0.000,-0.000,0.000,93.660,-0.000
33.108,59.660,104.050,75.950,2320.000,0.000,-0.030,36.690,6.550,-0.000,-0.000,0.083,103.950,-0.000
33.181,68.590,112.530,67.470,3886.000,0.000,-0.030,36.690,6.550,-0.000,-0.000,0.172,112.430,-0.000
33.253,80.930,118.080,61.920,3964.000,0.000,0.040,36.930,6.610,-0.010,0.000,0.238,117.980,0.000
33.325,95.100,120.000,60.000,5604.000,0.000,0.040,36.930,6.610,-0.010,0.000,0.273,119.900,0.000
33.397,109.070,118.080,61.920,4254.000,0.000,0.040,36.930,6.610,-0.010,0.000,0.268,117.980,0.000
33.469,121.570,112.430,67.570,7046.000,0.000,-0.060,36.400,6.650,0.040,-0.000,0.241,112.330,-0.000
33.541,130.430,103.920,76.080,6874.000,0.000,-0.060,36.400,6.650,0.040,-0.000,0.171,103.820,-0.000
33.613,134.680,93.760,86.240,5374.000,0.000,0.480,33.820,4.990,-0.540,0.010,0.082,93.660,0.000
33.684,133.840,82.830,97.170,2582.000,0.000,0.480,33.820,4.990,-0.540,0.010,0.016,82.730,0.000
33.757,127.940,72.980,107.020,2716.000,0.000,0.480,33.820,4.990,-0.540,0.010,0.112,72.880,0.000
33.829,117.770,65.340,114.660,5604.000,0.000,1.770,4.280,0.240,-0.450,-0.060,0.196,65.240,0.000
33.901,104.660,60.890,119.110,4112.000,0.000,1.770,4.280,0.240,-0.450,-0.060,0.254,60.790,0.000
33.972,90.290,60.210,119.790,7192.000,0.000,1.210,7.980,1.380,-0.150,-0.050,0.280,60.110,0.000
34.044,76.530,63.390,116.610,7156.000,0.000,1.210,7.980,1.380,-0.150,-0.050,0.266,63.290,0.000
34.116,65.160,70.020,109.980,9306.000,0.000,1.210,7.980,1.380,-0.150,-0.050,0.219,69.920,0.000
34.188,57.660,79.240,100.760,9116.000,0.000,0.850,23.220,2.740,-0.370,0.050,0.144,79.140,0.000
34.260,55.000,89.850,90.150,9276.000,0.000,0.850,23.220,2.740,-0.370,0.050,0.052,89.750,0.000
34.332,57.450,100.340,79.660,6174.000,0.000,0.850,23.220,2.740,-0.370,0.050,0.047,100.240,0.000
34.404,64.900,109.750,70.250,1926.000,0.000,1.880,41.580,5.920,-0.400,0.020,0.144,109.650,0.001
34.476,76.170,116.470,63.530,4028.000,0.000,1.880,41.580,5.920,-0.400,0.020,0.217,116.370,0.000
34.547,89.690,119.730,60.270,4132.000,0.000,1.050,27.820,4.410,-0.020,0.010,0.262,119.630,0.000
34.620,104.070,119.220,60.780,5252.000,0.000,1.050,27.820,4.410,-0.020,0.010,0.274,119.120,0.000
34.692,117.440,114.830,65.170,4780.000,0.000,1.050,27.820,4.410,-0.020,0.010,0.258,114.730,0.000
34.765,127.600,107.390,72.610,7910.000,0.000,-0.540,1.060,0.250,-0.040,-0.010,0.195,107.290,-0.000
34.836,133.740,97.460,82.540,7628.000,0.000,-0.540,1.060,0.250,-0.040,-0.010,0.120,97.360,-0.000
34.908,134.760,86.690,93.310,3864.000,0.000,-0.540,1.060,0.250,-0.040,-0.010,0.020,86.590,-0.000
34.981,130.620,76.350,103.650,1622.000,0.000,2.150,12.150,0.950,-0.630,-0.030,0.079,76.250,0.001
35.053,121.860,67.770,112.230,5374.000,0.000,2.150,12.150,0.950,-0.630,-0.030,0.169,67.670,0.000
35.125,109.630,62.080,117.920,4962.000,0.000,1.700,0.490,-0.120,-0.360,-0.080,0.236,61.980,0.000
35.196,95.500,60.000,120.000,5770.000,0.000,1.700,0.490,-0.120,-0.360,-0.080,0.274,59.900,0.000
35.268,81.310,61.810,118.190,7960.000,0.000,1.700,0.490,-0.120,-0.360,-0.080,0.273,61.710,0.000
35.340,68.890,67.270,112.730,8018.000,0.000,0.210,2.050,0.080,-0.230,-0.010,0.240,67.170,0.000
35.412,59.850,75.680,104.320,9732.000,0.000,0.210,2.050,0.080,-0.230,-0.010,0.174,75.580,0.000
35.484,55.370,85.940,94.060,9716.000,0.000,2.020,6.230,-0.520,-0.420,0.010,0.087,85.840,0.000
35.556,56.020,96.730,83.270,8632.000,0.000,2.020,6.230,-0.520,-0.420,0.010,0.013,96.630,0.000
35.628,61.720,106.640,73.360,2334.000,0.000,2.020,6.230,-0.520,-0.420,0.010,0.109,106.540,0.001
35.700,71.570,114.310,65.690,3230.000,0.000,1.790,6.060,-0.460,-0.380,0.020,0.190,114.210,0.001
35.772,84.760,119.000,61.000,3630.000,0.000,1.790,6.060,-0.460,-0.380,0.020,0.255,118.900,0.000
35.844,99.110,119.840,60.160,6076.000,0.000,1.790,6.060,-0.460,-0.380,0.020,0.276,119.740,0.000
35.917,112.760,116.880,63.120,4682.000,0.000,0.390,0.180,0.280,0.140,-0.020,0.261,116.780,0.000
35.989,124.430,110.320,69.680,7524.000,0.000,0.390,0.180,0.280,0.140,-0.020,0.225,110.220,0.000
36.061,132.120,101.180,78.820,6636.000,0.000,0.010,2.790,-0.240,-0.400,0.010,0.148,101.080,0.000
36.132,135.000,90.450,89.550,5780.000,0.000,0.010,2.790,-0.240,-0.400,0.010,0.056,90.350,0.000
36.205,132.690,79.940,100.060,2320.000,0.000,0.010,2.790,-0.240,-0.400,0.010,0.044,79.840,0.000
36.277,125.500,70.590,109.410,3510.000,0.000,2.220,3.080,-0.220,-0.520,-0.040,0.138,70.490,0.001
36.349,114.180,63.670,116.330,6130.000,0.000,2.220,3.080,-0.220,-0.520,-0.040,0.219,63.570,0.000
36.421,100.710,60.310,119.690,4998.000,0.000,2.220,3.080,-0.220,-0.520,-0.040,0.259,60.210,0.000
36.493,86.320,60.710,119.290,7664.000,0.000,1.540,0.150,0.020,-0.220,-0.070,0.280,60.610,0.000
36.565,72.890,65.000,115.000,8106.000,0.000,1.540,0.150,0.020,-0.220,-0.070,0.259,64.900,0.000
36.637,62.640,72.370,107.630,9358.000,0.000,0.520,5.260,-0.080,-0.350,0.030,0.198,72.270,0.000
36.708,56.410,82.100,97.900,9690.000,0.000,0.520,5.260,-0.080,-0.350,0.030,0.121,82.000,0.000
36.780,55.200,93.010,86.990,7210.000,0.000,0.520,5.260,-0.080,-0.350,0.030,0.023,92.910,0.000
36.853,59.110,103.250,76.750,1684.000,0.000,2.200,7.080,-0.370,-0.420,0.030,0.075,103.150,0.001
36.924,67.690,111.920,68.080,5152.000,0.000,2.200,7.080,-0.370,-0.420,0.030,0.166,111.820,0.000
36.996,79.810,117.750,62.250,4194.000,0.000,1.430,6.130,0.010,-0.210,0.020,0.234,117.650,0.000
37.069,93.890,119.990,60.010,4768.000,0.000,1.430,6.130,0.010,-0.210,0.020,0.270,119.890,0.000
37.141,108.120,118.340,61.660,4434.000,0.000,1.430,6.130,0.010,-0.210,0.020,0.272,118.240,0.000
37.213,120.650,113.020,66.980,6112.000,0.000,-0.430,0.240,0.280,0.100,-0.010,0.241,112.920,-0.000
37.285,129.950,104.580,75.420,8614.000,0.000,-0.430,0.240,0.280,0.100,-0.010,0.179,104.480,-0.000
37.357,134.550,94.510,85.490,7108.000,0.000,-0.430,0.240,0.280,0.100,-0.010,0.089,94.410,-0.000
37.429,134.070,83.570,96.430,3594.000,0.000,1.530,5.310,-0.310,-0.630,-0.020,0.009,83.470,0.000
37.502,128.500,73.610,106.390,4214.000,0.000,1.530,5.310,-0.310,-0.630,-0.020,0.106,73.510,0.000
37.573,118.750,65.860,114.140,3624.000,0.000,2.210,1.370,-0.160,-0.430,-0.070,0.188,65.760,0.001
37.645,105.630,61.080,118.920,4184.000,0.000,2.210,1.370,-0.160,-0.430,-0.070,0.253,60.980,0.001
37.717,91.290,60.130,119.870,6092.000,0.000,2.210,1.370,-0.160,-0.430,-0.070,0.278,60.030,0.000
37.789,77.430,63.050,116.950,7720.000,0.000,0.710,2.930,0.300,-0.160,-0.030,0.267,62.950,0.000
37.861,65.840,69.460,110.540,8710.000,0.000,0.710,2.930,0.300,-0.160,-0.030,0.223,69.360,0.000
37.934,58.040,78.540,101.460,9330.000,0.000,0.710,2.930,0.300,-0.160,-0.030,0.150,78.440,0.000
38.005,55.020,89.100,90.900,9522.000,0.000,1.570,12.270,0.500,-0.430,0.020,0.059,89.000,0.000
38.077,57.180,99.770,80.230,6102.000,0.000,1.570,12.270,0.500,-0.430,0.020,0.042,99.670,0.000
38.149,64.240,109.180,70.820,4020.000,0.000,2.280,35.150,4.750,-0.420,0.020,0.136,109.080,0.001
38.221,75.120,116.030,63.970,2160.000,0.000,2.280,35.150,4.750,-0.420,0.020,0.210,115.930,0.001
38.293,88.690,119.620,60.380,4898.000,0.000,2.280,35.150,4.750,-0.420,0.020,0.262,119.520,0.000
38.365,103.280,119.350,60.650,6246.000,0.000,1.000,14.690,2.400,0.020,0.010,0.279,119.250,0.000
38.446,116.600,115.250,64.750,5338.000,0.000,1.000,14.690,2.400,0.020,0.010,0.229,115.150,0.000
38.510,127.120,107.880,72.120,8094.000,0.000,-0.340,0.110,-0.150,-0.160,-0.000,0.229,107.780,-0.000
38.582,133.480,98.190,81.810,6030.000,0.000,-0.340,0.110,-0.150,-0.160,-0.000,0.123,98.090,-0.000
38.653,134.840,87.290,92.710,4156.000,0.000,-0.340,0.110,-0.150,-0.160,-0.000,0.026,87.190,-0.000
38.726,131.060,77.020,102.980,5270.000,0.000,2.020,8.120,0.310,-0.610,-0.010,0.072,76.920,0.000
38.798,122.600,68.290,111.710,4236.000,0.000,2.020,8.120,0.310,-0.610,-0.010,0.163,68.190,0.000
38.870,110.380,62.310,117.690,6148.000,0.000,2.020,8.120,0.310,-0.610,-0.010,0.236,62.210,0.000
38.942,96.510,60.020,119.980,6766.000,0.000,1.990,20.940,3.670,-0.310,-0.090,0.269,59.920,0.000
39.014,82.260,61.560,118.440,6838.000,0.000,1.990,20.940,3.670,-0.310,-0.090,0.275,61.460,0.000
39.086,69.500,66.880,113.120,8756.000,0.000,0.650,5.880,0.340,-0.310,0.010,0.246,66.780,0.000
39.159,60.340,75.020,104.980,10018.000,0.000,0.650,5.880,0.340,-0.310,0.010,0.174,74.920,0.000
39.230,55.480,85.340,94.660,9712.000,0.000,0.650,5.880,0.340,-0.310,0.010,0.095,85.240,0.000
39.301,55.850,96.140,83.860,7134.000,0.000,2.150,13.530,0.670,-0.430,0.020,0.007,96.040,0.000
39.374,61.280,106.140,73.860,1252.000,0.000,2.150,13.530,0.670,-0.430,0.020,0.104,106.040,0.002
39.446,70.920,113.960,66.040,6010.000,0.000,1.860,13.740,1.000,-0.370,0.030,0.186,113.860,0.000
39.518,83.790,118.800,61.200,4096.000,0.000,1.860,13.740,1.000,-0.370,0.030,0.248,118.700,0.000
39.590,98.310,119.900,60.100,6524.000,0.000,1.860,13.740,1.000,-0.370,0.030,0.278,119.800,0.000
39.662,112.030,117.140,62.860,4772.000,0.000,0.010,18.270,3.700,0.100,0.000,0.265,117.040,0.000
39.735,123.880,110.760,69.240,6466.000,0.000,0.010,18.270,3.700,0.100,0.000,0.228,110.660,0.000
39.807,131.810,101.740,78.260,8180.000,0.000,0.010,18.270,3.700,0.100,0.000,0.153,101.640,0.000
39.878,134.960,91.360,88.640,6288.000,0.000,0.680,2.770,-0.390,-0.510,-0.010,0.061,91.260,0.000
39.950,132.950,80.510,99.490,2870.000,0.000,0.680,2.770,-0.390,-0.510,-0.010,0.039,80.410,0.000
40.023,126.010,71.050,108.950,6468.000,0.000,2.520,8.550,0.890,-0.500,-0.060,0.133,70.950,0.000
