Used Parameters:
Used Foils:,stiff_foils
Waterspeed:,0.0
Frequency:,0.7
Heave Amplitude:,38
Pitch Amplitude:,45
Camber Amplitude,90
Pitch Phase,0
Camber Phase,0
Turn Rate,0
Test Duration,10

Statistical Evaluation:
Time,Heave_pos,Pitch_right,Pitch_left,Power_consumption,Noise,Fx,Fz,Mx,My,Mz,Inflow_velocity,Angle_of_attack,Efficiency
average,92.334,90.216,89.784,4659.644,0.000,0.940,0.000,0.466,0.474,-0.001,0.148,90.116,0.256
max,133.000,134.990,135.000,8804.000,0.000,2.010,0.000,1.000,1.140,0.020,0.235,134.890,1.667
min,57.020,45.000,45.010,822.000,0.000,-0.480,0.000,-0.230,-0.390,-0.010,0.002,44.900,-0.368
std. dev,26.765,32.142,32.142,1923.183,0.000,0.705,0.000,0.323,0.402,0.010,0.072,32.142,0.325

Complete Data:
Time,Heave_pos,Pitch_right,Pitch_left,Power_consumption,Noise,Fx,Fz,Mx,My,Mz,Inflow_velocity,Angle_of_attack,Efficiency
368.379,58.940,104.200,75.800,4532.000,0.000,-0.020,0.000,-0.010,-0.010,-0.000,0.037,104.100,-0.004
368.451,64.370,116.630,63.370,2262.000,0.000,-0.020,0.000,-0.010,-0.010,-0.000,0.105,116.530,-0.009
368.523,72.900,126.600,53.400,3804.000,0.000,-0.010,0.000,-0.010,-0.000,-0.000,0.165,126.500,-0.003
368.594,83.780,132.990,47.010,4010.000,0.000,-0.010,0.000,-0.010,-0.000,-0.000,0.211,132.890,-0.002
368.666,95.480,135.000,45.000,2858.000,0.000,-0.080,0.000,-0.000,-0.070,0.000,0.226,134.900,-0.028
368.739,107.290,132.580,47.420,3840.000,0.000,-0.080,0.000,-0.000,-0.070,0.000,0.226,132.480,-0.021
368.811,118.010,125.820,54.180,1360.000,0.000,-0.080,0.000,-0.000,-0.070,0.000,0.206,125.720,-0.059
368.883,126.190,115.710,64.290,6584.000,0.000,1.240,0.000,0.600,0.640,-0.000,0.157,115.610,0.188
368.955,131.400,102.930,77.070,5360.000,0.000,1.240,0.000,0.600,0.640,-0.000,0.100,102.830,0.231
369.027,132.980,88.670,91.330,2350.000,0.000,1.240,0.000,0.600,0.640,-0.000,0.031,88.570,0.528
369.099,130.800,74.920,105.080,5796.000,0.000,2.140,0.000,1.140,1.010,0.010,0.042,74.820,0.369
369.171,125.060,62.460,117.540,1550.000,0.000,2.140,0.000,1.140,1.010,0.010,0.111,62.360,1.381
369.243,116.180,52.640,127.360,6216.000,0.000,0.720,0.000,0.450,0.260,0.010,0.172,52.540,0.116
369.315,105.300,46.690,133.310,5548.000,0.000,0.720,0.000,0.450,0.260,0.010,0.210,46.590,0.130
369.387,93.400,45.040,134.960,5938.000,0.000,0.720,0.000,0.450,0.260,0.010,0.230,44.940,0.121
369.459,81.660,47.870,132.130,5606.000,0.000,0.420,0.000,0.190,0.230,-0.000,0.227,47.770,0.075
369.531,71.240,54.880,125.120,3430.000,0.000,0.420,0.000,0.190,0.230,-0.000,0.201,54.780,0.122
369.603,63.190,65.390,114.610,7806.000,0.000,1.400,0.000,0.630,0.770,-0.010,0.154,65.290,0.179
369.675,58.300,78.340,101.660,8012.000,0.000,1.400,0.000,0.630,0.770,-0.010,0.095,78.240,0.175
369.747,57.060,92.460,87.540,4276.000,0.000,1.400,0.000,0.630,0.770,-0.010,0.024,92.360,0.327
369.819,59.530,106.140,73.860,4600.000,0.000,1.840,0.000,0.870,0.970,-0.010,0.047,106.040,0.400
369.891,65.640,118.580,61.420,3496.000,0.000,1.840,0.000,0.870,0.970,-0.010,0.118,118.480,0.526
369.963,74.620,127.980,52.020,5636.000,0.000,1.840,0.000,0.870,0.970,-0.010,0.175,127.880,0.326
370.034,85.460,133.560,46.440,6348.000,0.000,0.700,0.000,0.500,0.200,0.020,0.209,133.460,0.110
370.106,97.550,134.900,45.100,1720.000,0.000,0.700,0.000,0.500,0.200,0.020,0.233,134.800,0.407
370.179,109.230,131.720,48.280,4492.000,0.000,-0.140,0.000,-0.170,0.030,-0.010,0.223,131.620,-0.031
370.252,119.500,124.400,55.600,2370.000,0.000,-0.140,0.000,-0.170,0.030,-0.010,0.196,124.300,-0.059
370.324,127.330,113.660,66.340,6908.000,0.000,-0.140,0.000,-0.170,0.030,-0.010,0.152,113.560,-0.020
370.396,131.980,100.370,79.630,5168.000,0.000,0.760,0.000,0.320,0.440,-0.010,0.090,100.270,0.147
370.468,132.870,86.220,93.780,3660.000,0.000,0.760,0.000,0.320,0.440,-0.010,0.017,86.120,0.208
370.541,130.050,72.620,107.380,5764.000,0.000,0.760,0.000,0.320,0.440,-0.010,0.054,72.520,0.132
370.612,123.630,60.410,119.590,4722.000,0.000,1.630,0.000,0.930,0.700,0.010,0.124,60.310,0.345
370.684,114.430,51.320,128.680,6416.000,0.000,1.630,0.000,0.930,0.700,0.010,0.177,51.220,0.254
370.756,103.290,46.080,133.920,6014.000,0.000,0.360,0.000,0.300,0.060,0.010,0.215,45.980,0.060
370.828,91.330,45.210,134.790,4778.000,0.000,0.360,0.000,0.300,0.060,0.010,0.232,45.110,0.075
370.900,79.730,48.790,131.210,6878.000,0.000,0.360,0.000,0.300,0.060,0.010,0.224,48.690,0.052
370.972,69.660,56.470,123.530,4082.000,0.000,0.710,0.000,0.250,0.460,-0.010,0.194,56.370,0.174
371.044,62.100,67.480,112.520,8216.000,0.000,0.710,0.000,0.250,0.460,-0.010,0.146,67.380,0.086
371.115,57.810,80.740,99.260,8182.000,0.000,1.500,0.000,0.650,0.850,-0.010,0.084,80.640,0.183
371.188,57.230,94.910,85.090,2542.000,0.000,1.500,0.000,0.650,0.850,-0.010,0.011,94.810,0.590
371.260,60.400,108.600,71.400,4816.000,0.000,1.500,0.000,0.650,0.850,-0.010,0.061,108.500,0.311
371.332,67.010,120.430,59.570,3756.000,0.000,1.600,0.000,0.750,0.850,-0.010,0.127,120.330,0.426
371.404,76.400,129.240,50.760,5980.000,0.000,1.600,0.000,0.750,0.850,-0.010,0.181,129.140,0.268
371.476,87.650,134.150,45.850,4554.000,0.000,1.600,0.000,0.750,0.850,-0.010,0.217,134.050,0.351
371.548,99.620,134.670,45.330,2854.000,0.000,-0.350,0.000,-0.050,-0.300,0.010,0.231,134.570,-0.123
371.621,111.290,130.660,49.340,3194.000,0.000,-0.350,0.000,-0.050,-0.300,0.010,0.223,130.560,-0.110
371.693,121.050,122.760,57.240,2966.000,0.000,0.740,0.000,0.420,0.320,0.000,0.188,122.660,0.249
371.766,128.450,111.360,68.640,3140.000,0.000,0.740,0.000,0.420,0.320,0.000,0.142,111.260,0.236
371.837,132.400,97.960,82.040,5380.000,0.000,0.740,0.000,0.420,0.320,0.000,0.077,97.860,0.138
371.909,132.630,83.770,96.230,2416.000,0.000,1.670,0.000,0.920,0.750,0.010,0.004,83.670,0.691
371.982,129.130,70.200,109.800,2760.000,0.000,1.670,0.000,0.920,0.750,0.010,0.067,70.100,0.605
372.054,122.110,58.460,121.540,3834.000,0.000,1.100,0.000,0.690,0.400,0.010,0.136,58.360,0.287
372.126,112.610,50.130,129.870,6520.000,0.000,1.100,0.000,0.690,0.400,0.010,0.184,50.030,0.169
372.198,101.250,45.610,134.390,5722.000,0.000,1.100,0.000,0.690,0.400,0.010,0.218,45.510,0.192
372.270,89.100,45.550,134.450,5334.000,0.000,0.150,0.000,0.100,0.050,0.000,0.235,45.450,0.028
372.342,77.850,49.840,130.160,4404.000,0.000,0.150,0.000,0.100,0.050,0.000,0.216,49.740,0.034
372.414,68.030,58.300,121.700,6544.000,0.000,0.150,0.000,0.100,0.050,0.000,0.190,58.200,0.023
372.486,61.030,69.820,110.180,7350.000,0.000,1.000,0.000,0.530,0.470,0.000,0.135,69.720,0.136
372.558,57.420,83.350,96.650,5352.000,0.000,1.000,0.000,0.530,0.470,0.000,0.070,83.250,0.187
372.629,57.540,97.540,82.460,2946.000,0.000,1.850,0.000,0.840,1.010,-0.010,0.002,97.440,0.628
372.702,61.380,110.980,69.020,2182.000,0.000,1.850,0.000,0.840,1.010,-0.010,0.074,110.880,0.848
372.774,68.570,122.340,57.660,5492.000,0.000,1.850,0.000,0.840,1.010,-0.010,0.139,122.240,0.337
372.846,78.390,130.470,49.530,5732.000,0.000,1.010,0.000,0.630,0.390,0.010,0.190,130.370,0.176
372.918,89.860,134.590,45.410,3576.000,0.000,1.010,0.000,0.630,0.390,0.010,0.220,134.490,0.282
372.991,101.840,134.270,45.730,1382.000,0.000,-0.340,0.000,-0.230,-0.100,-0.010,0.229,134.170,-0.246
373.063,113.140,129.540,50.460,4856.000,0.000,-0.340,0.000,-0.230,-0.100,-0.010,0.218,129.440,-0.070
373.135,122.640,120.890,59.110,2382.000,0.000,-0.340,0.000,-0.230,-0.100,-0.010,0.182,120.790,-0.143
373.207,129.450,108.980,71.020,6020.000,0.000,1.040,0.000,0.450,0.590,-0.010,0.131,108.880,0.173
373.279,132.710,95.530,84.470,6638.000,0.000,1.040,0.000,0.450,0.590,-0.010,0.063,95.430,0.157
373.351,132.260,81.150,98.850,2402.000,0.000,1.040,0.000,0.450,0.590,-0.010,0.009,81.050,0.433
373.424,128.080,67.850,112.150,4544.000,0.000,1.890,0.000,0.960,0.930,0.000,0.079,67.750,0.416
373.496,120.610,56.750,123.250,7556.000,0.000,1.890,0.000,0.960,0.930,0.000,0.144,56.650,0.250
373.568,110.590,48.960,131.040,6708.000,0.000,0.570,0.000,0.460,0.100,0.020,0.193,48.860,0.085
373.640,98.860,45.230,134.770,3700.000,0.000,0.570,0.000,0.460,0.100,0.020,0.227,45.130,0.154
373.712,86.900,46.030,133.970,3058.000,0.000,0.570,0.000,0.460,0.100,0.020,0.231,45.930,0.186
373.784,75.880,51.110,128.890,4870.000,0.000,0.380,0.000,0.130,0.250,-0.010,0.213,51.010,0.078
373.856,66.500,60.240,119.760,8094.000,0.000,0.380,0.000,0.130,0.250,-0.010,0.180,60.140,0.047
373.928,60.090,72.230,107.770,7268.000,0.000,0.380,0.000,0.130,0.250,-0.010,0.124,72.130,0.052
373.999,57.170,85.790,94.210,6206.000,0.000,1.370,0.000,0.620,0.750,-0.010,0.057,85.690,0.221
374.072,57.980,100.150,79.850,822.000,0.000,1.370,0.000,0.620,0.750,-0.010,0.016,100.050,1.667
374.143,62.490,113.290,66.700,4666.000,0.000,2.010,0.000,1.000,1.020,-0.000,0.087,113.190,0.431
374.216,70.100,124.000,56.000,4954.000,0.000,2.010,0.000,1.000,1.020,-0.000,0.146,123.900,0.406
374.288,80.440,131.560,48.440,3634.000,0.000,2.010,0.000,1.000,1.020,-0.000,0.199,131.460,0.553
374.360,92.090,134.870,45.130,4132.000,0.000,-0.190,0.000,0.040,-0.230,0.010,0.224,134.770,-0.046
374.432,103.870,133.760,46.240,1108.000,0.000,-0.190,0.000,0.040,-0.230,0.010,0.226,133.660,-0.171
374.505,115.080,128.210,51.790,3700.000,0.000,0.540,0.000,0.160,0.380,-0.010,0.215,128.110,0.146
374.577,124.130,118.900,61.100,4748.000,0.000,0.540,0.000,0.160,0.380,-0.010,0.174,118.800,0.114
374.649,130.340,106.540,73.460,5678.000,0.000,0.540,0.000,0.160,0.380,-0.010,0.120,106.440,0.095
374.721,132.920,92.880,87.120,5876.000,0.000,1.370,0.000,0.600,0.770,-0.010,0.050,92.780,0.233
374.793,131.750,78.560,101.440,956.000,0.000,1.370,0.000,0.600,0.770,-0.010,0.023,78.460,1.433
374.865,126.920,65.580,114.420,4762.000,0.000,1.370,0.000,0.600,0.770,-0.010,0.093,65.480,0.288
374.938,118.910,55.020,124.980,6638.000,0.000,1.720,0.000,0.920,0.800,0.010,0.153,54.920,0.259
375.010,108.520,47.950,132.050,1658.000,0.000,1.720,0.000,0.920,0.800,0.010,0.201,47.850,1.037
375.081,96.620,45.040,134.960,5570.000,0.000,0.070,0.000,0.090,-0.020,0.010,0.231,44.940,0.013
375.154,84.880,46.620,133.380,3978.000,0.000,0.070,0.000,0.090,-0.020,0.010,0.226,46.520,0.018
375.226,73.980,52.510,127.490,5242.000,0.000,0.070,0.000,0.090,-0.020,0.010,0.210,52.410,0.013
375.298,65.060,62.290,117.710,8152.000,0.000,0.840,0.000,0.510,0.330,0.010,0.172,62.190,0.103
375.370,59.320,74.520,105.480,6946.000,0.000,0.840,0.000,0.510,0.330,0.010,0.111,74.420,0.121
375.441,57.020,88.450,91.550,5632.000,0.000,2.000,0.000,0.860,1.140,-0.010,0.045,88.350,0.355
375.514,58.550,102.720,77.280,1780.000,0.000,2.000,0.000,0.860,1.140,-0.010,0.029,102.620,1.124
375.586,63.610,115.360,64.640,4778.000,0.000,2.000,0.000,0.860,1.140,-0.010,0.097,115.260,0.419
375.658,71.970,125.800,54.200,5590.000,0.000,1.390,0.000,0.650,0.740,-0.000,0.162,125.700,0.249
375.730,82.530,132.510,47.490,4050.000,0.000,1.390,0.000,0.650,0.740,-0.000,0.204,132.410,0.343
375.802,94.330,134.990,45.010,4506.000,0.000,1.390,0.000,0.650,0.740,-0.000,0.227,134.890,0.308
375.875,106.200,133.000,47.000,1304.000,0.000,-0.480,0.000,-0.090,-0.390,0.020,0.227,132.900,-0.368
375.947,116.950,126.740,53.260,2650.000,0.000,-0.480,0.000,-0.090,-0.390,0.020,0.206,126.640,-0.181
376.019,125.620,116.660,63.340,6826.000,0.000,0.700,0.000,0.320,0.380,-0.000,0.167,116.560,0.103
376.091,131.050,104.230,75.770,6564.000,0.000,0.700,0.000,0.320,0.380,-0.000,0.104,104.130,0.107
376.163,133.000,90.030,89.970,4990.000,0.000,0.700,0.000,0.320,0.380,-0.000,0.038,89.930,0.140
376.235,131.120,76.010,103.990,1448.000,0.000,1.430,0.000,0.670,0.760,-0.000,0.036,75.910,0.988
376.307,125.740,63.550,116.450,5786.000,0.000,1.430,0.000,0.670,0.760,-0.000,0.104,63.450,0.247
376.379,117.120,53.410,126.590,5460.000,0.000,0.690,0.000,0.390,0.300,0.000,0.166,53.310,0.126
376.452,106.400,47.070,132.930,3012.000,0.000,0.690,0.000,0.390,0.300,0.000,0.205,46.970,0.229
376.524,94.550,45.000,135.000,6050.000,0.000,0.690,0.000,0.390,0.300,0.000,0.230,44.900,0.114
376.596,82.740,47.410,132.590,6406.000,0.000,0.470,0.000,0.170,0.290,-0.010,0.228,47.310,0.073
376.668,72.010,54.170,125.830,4758.000,0.000,0.470,0.000,0.170,0.290,-0.010,0.206,54.070,0.099
376.740,63.730,64.430,115.570,8804.000,0.000,0.470,0.000,0.170,0.290,-0.010,0.159,64.330,0.053
376.812,58.610,77.040,102.960,7934.000,0.000,1.310,0.000,0.540,0.770,-0.010,0.099,76.940,0.165
376.883,57.020,91.300,88.700,4092.000,0.000,1.310,0.000,0.540,0.770,-0.010,0.031,91.200,0.320
376.955,59.250,105.240,74.760,2740.000,0.000,1.910,0.000,0.820,1.100,-0.010,0.043,105.140,0.697
377.028,64.930,117.510,62.490,4120.000,0.000,1.910,0.000,0.820,1.100,-0.010,0.109,117.410,0.464
377.100,73.800,127.350,52.650,5252.000,0.000,1.910,0.000,0.820,1.100,-0.010,0.171,127.250,0.364
377.172,84.670,133.310,46.690,3330.000,0.000,0.380,0.000,0.250,0.130,0.010,0.210,133.210,0.114
377.244,96.410,134.970,45.030,1120.000,0.000,0.380,0.000,0.250,0.130,0.010,0.227,134.870,0.339
