Used Parameters:
Used Foils:,cambered_foils_balloon
Waterspeed:,0.0
Frequency:,0.7
Heave Amplitude:,38
Pitch Amplitude:,55
Camber Amplitude,90
Pitch Phase,0
Camber Phase,0
Turn Rate,0
Test Duration,10

Statistical Evaluation:
Time,Heave_pos,Pitch_right,Pitch_left,Power_consumption,Noise,Fx,Fz,Mx,My,Mz,Inflow_velocity,Angle_of_attack,Efficiency
average,94.089,91.981,88.019,7323.962,0.000,0.928,0.000,0.493,0.436,0.003,0.148,91.881,0.190
max,133.000,144.990,144.990,11088.000,0.000,2.420,0.000,1.680,1.220,0.060,0.234,144.890,3.462
min,57.010,35.010,35.010,338.000,0.000,-0.360,0.000,-0.290,-0.200,-0.040,0.003,34.910,-0.057
std. dev,26.820,39.265,39.265,2005.558,0.000,0.771,0.000,0.510,0.385,0.025,0.071,39.265,0.376

Complete Data:
Time,Heave_pos,Pitch_right,Pitch_left,Power_consumption,Noise,Fx,Fz,Mx,My,Mz,Inflow_velocity,Angle_of_attack,Efficiency
225.291,58.940,107.360,72.640,6662.000,0.000,0.010,0.000,0.020,-0.020,0.000,0.037,107.260,0.002
225.362,64.470,122.750,57.250,7176.000,0.000,0.010,0.000,0.020,-0.020,0.000,0.107,122.650,0.001
225.434,72.900,134.740,45.260,4654.000,0.000,0.020,0.000,0.020,-0.010,0.000,0.163,134.640,0.004
225.506,83.780,142.550,37.450,8372.000,0.000,0.020,0.000,0.020,-0.010,0.000,0.210,142.450,0.002
225.578,95.640,144.990,35.010,6638.000,0.000,0.020,0.000,0.020,-0.010,0.000,0.229,144.890,0.003
225.650,107.290,142.050,37.950,7222.000,0.000,0.050,0.000,0.050,-0.000,0.000,0.223,141.950,0.007
225.723,118.010,133.770,46.230,6684.000,0.000,0.050,0.000,0.050,-0.000,0.000,0.206,133.670,0.007
225.795,126.280,121.230,58.770,7176.000,0.000,0.670,0.000,0.060,0.610,-0.030,0.158,121.130,0.093
225.866,131.440,105.580,74.420,9824.000,0.000,0.670,0.000,0.060,0.610,-0.030,0.101,105.480,0.068
225.938,132.980,88.380,91.620,4184.000,0.000,0.670,0.000,0.060,0.610,-0.030,0.030,88.280,0.160
226.010,130.750,71.340,108.660,6636.000,0.000,2.070,0.000,1.130,0.940,0.010,0.043,71.240,0.312
226.082,124.950,56.150,123.850,3214.000,0.000,2.070,0.000,1.130,0.940,0.010,0.112,56.050,0.644
226.155,116.180,44.340,135.660,6158.000,0.000,2.070,0.000,1.130,0.940,0.010,0.168,44.240,0.336
226.226,105.300,37.060,142.940,8840.000,0.000,0.680,0.000,0.360,0.320,0.000,0.211,36.960,0.077
226.298,93.230,35.060,144.940,8140.000,0.000,0.680,0.000,0.360,0.320,0.000,0.235,34.960,0.084
226.370,81.660,38.500,141.500,8696.000,0.000,0.290,0.000,0.280,0.010,0.010,0.223,38.400,0.033
226.442,71.240,47.080,132.920,9054.000,0.000,0.290,0.000,0.280,0.010,0.010,0.200,46.980,0.032
226.514,63.100,60.120,119.880,8074.000,0.000,0.290,0.000,0.280,0.010,0.010,0.157,60.020,0.036
226.586,58.300,75.750,104.250,9988.000,0.000,1.430,0.000,0.770,0.660,0.010,0.093,75.650,0.143
226.657,57.060,93.000,87.000,2808.000,0.000,1.430,0.000,0.770,0.660,0.010,0.024,92.900,0.509
226.730,59.650,110.180,69.820,8166.000,0.000,1.430,0.000,0.770,0.660,0.010,0.050,110.080,0.175
226.801,65.640,124.930,55.070,7130.000,0.000,1.600,0.000,0.610,1.000,-0.020,0.116,124.830,0.224
226.874,74.620,136.420,43.580,8288.000,0.000,1.600,0.000,0.610,1.000,-0.020,0.173,136.320,0.193
226.945,85.620,143.300,36.700,7654.000,0.000,0.820,0.000,0.240,0.580,-0.020,0.213,143.200,0.107
227.017,97.720,144.860,35.140,8532.000,0.000,0.820,0.000,0.240,0.580,-0.020,0.234,144.760,0.096
227.090,109.230,141.000,39.000,7606.000,0.000,0.820,0.000,0.240,0.580,-0.020,0.220,140.900,0.108
227.162,119.620,131.890,48.110,6318.000,0.000,-0.360,0.000,-0.190,-0.170,-0.000,0.200,131.790,-0.057
227.234,127.410,118.710,61.290,8900.000,0.000,-0.360,0.000,-0.190,-0.170,-0.000,0.150,118.610,-0.040
227.307,131.980,102.670,77.330,10404.000,0.000,1.260,0.000,0.970,0.290,0.040,0.088,102.570,0.121
227.378,132.870,85.370,94.630,3336.000,0.000,1.260,0.000,0.970,0.290,0.040,0.017,85.270,0.378
227.451,129.990,68.540,111.460,8342.000,0.000,1.260,0.000,0.970,0.290,0.040,0.055,68.440,0.151
227.523,123.630,53.840,126.160,2534.000,0.000,2.220,0.000,1.440,0.780,0.030,0.122,53.740,0.876
227.595,114.430,42.730,137.270,6502.000,0.000,2.220,0.000,1.440,0.780,0.030,0.178,42.630,0.341
227.667,103.130,36.270,143.730,9238.000,0.000,2.220,0.000,1.440,0.780,0.030,0.218,36.170,0.240
227.739,91.330,35.260,144.740,7626.000,0.000,0.240,0.000,0.280,-0.040,0.020,0.228,35.160,0.031
227.810,79.580,39.730,140.270,9060.000,0.000,0.240,0.000,0.280,-0.040,0.020,0.228,39.630,0.026
227.882,69.530,49.180,130.820,7740.000,0.000,0.510,0.000,0.280,0.230,0.000,0.194,49.080,0.066
227.955,62.020,62.690,117.310,7642.000,0.000,0.510,0.000,0.280,0.230,0.000,0.144,62.590,0.067
228.026,57.780,78.910,101.090,7986.000,0.000,0.510,0.000,0.280,0.230,0.000,0.082,78.810,0.064
228.098,57.250,96.240,83.760,2474.000,0.000,1.520,0.000,0.720,0.800,-0.000,0.010,96.140,0.614
228.170,60.470,112.950,67.050,9038.000,0.000,1.520,0.000,0.720,0.800,-0.000,0.062,112.850,0.168
228.242,67.010,127.190,52.810,6422.000,0.000,1.550,0.000,0.530,1.030,-0.030,0.127,127.090,0.241
228.313,76.550,138.080,41.920,5292.000,0.000,1.550,0.000,0.530,1.030,-0.030,0.185,137.980,0.293
228.386,87.810,144.010,35.990,8660.000,0.000,1.550,0.000,0.530,1.030,-0.030,0.216,143.910,0.179
228.458,99.790,144.560,35.440,7422.000,0.000,0.190,0.000,0.210,-0.010,0.010,0.232,144.460,0.026
228.531,111.290,139.690,40.310,7494.000,0.000,0.190,0.000,0.210,-0.010,0.010,0.219,139.590,0.025
228.603,121.170,129.880,50.120,8062.000,0.000,0.190,0.000,0.210,-0.010,0.010,0.188,129.780,0.024
228.675,128.450,116.100,63.900,7436.000,0.000,-0.260,0.000,-0.220,-0.040,-0.010,0.142,116.000,-0.035
228.746,132.400,99.730,80.270,9946.000,0.000,-0.260,0.000,-0.220,-0.040,-0.010,0.077,99.630,-0.026
228.818,132.610,82.150,97.850,1448.000,0.000,1.720,0.000,1.350,0.370,0.050,0.004,82.050,1.188
228.891,129.130,65.800,114.200,7754.000,0.000,1.720,0.000,1.350,0.370,0.050,0.067,65.700,0.222
228.963,122.110,51.450,128.550,8142.000,0.000,1.720,0.000,1.350,0.370,0.050,0.135,51.350,0.211
229.035,112.460,41.150,138.850,7288.000,0.000,0.680,0.000,0.240,0.440,-0.010,0.188,41.050,0.093
229.107,100.920,35.670,144.330,9182.000,0.000,0.680,0.000,0.240,0.440,-0.010,0.223,35.570,0.074
229.178,89.100,35.670,144.330,9198.000,0.000,0.680,0.000,0.240,0.440,-0.010,0.229,35.570,0.074
229.251,77.710,41.030,138.970,7704.000,0.000,0.010,0.000,0.030,-0.020,0.000,0.219,40.930,0.001
229.323,67.910,51.430,128.570,9178.000,0.000,0.010,0.000,0.030,-0.020,0.000,0.189,51.330,0.001
229.395,61.030,65.340,114.660,7510.000,0.000,1.170,0.000,0.580,0.590,-0.000,0.132,65.240,0.156
229.466,57.420,81.870,98.130,8146.000,0.000,1.170,0.000,0.580,0.590,-0.000,0.070,81.770,0.144
229.538,57.570,99.460,80.540,338.000,0.000,1.170,0.000,0.580,0.590,-0.000,0.003,99.360,3.462
229.610,61.380,115.640,64.360,8382.000,0.000,1.340,0.000,0.460,0.880,-0.020,0.073,115.540,0.160
229.682,68.570,129.520,50.480,9506.000,0.000,1.340,0.000,0.460,0.880,-0.020,0.139,129.420,0.141
229.754,78.540,139.570,40.430,7210.000,0.000,0.880,0.000,0.160,0.720,-0.030,0.192,139.470,0.122
229.826,89.860,144.490,35.510,7854.000,0.000,0.880,0.000,0.160,0.720,-0.030,0.219,144.390,0.112
229.899,101.840,144.100,35.900,7844.000,0.000,0.880,0.000,0.160,0.720,-0.030,0.229,144.000,0.112
229.971,113.290,138.210,41.790,6990.000,0.000,-0.300,0.000,-0.150,-0.150,-0.000,0.220,138.110,-0.043
230.043,122.750,127.570,52.430,8958.000,0.000,-0.300,0.000,-0.150,-0.150,-0.000,0.183,127.470,-0.033
230.116,129.450,113.200,66.800,5758.000,0.000,-0.300,0.000,-0.150,-0.150,-0.000,0.128,113.100,-0.052
230.187,132.730,96.520,83.480,9162.000,0.000,0.870,0.000,0.710,0.170,0.030,0.064,96.420,0.095
230.260,132.220,78.950,101.050,3726.000,0.000,0.870,0.000,0.710,0.170,0.030,0.010,78.850,0.233
230.332,128.080,62.930,117.070,7736.000,0.000,2.420,0.000,1.670,0.760,0.050,0.080,62.830,0.313
230.403,120.490,49.200,130.800,9466.000,0.000,2.420,0.000,1.670,0.760,0.050,0.147,49.100,0.256
230.476,110.440,39.750,140.250,4002.000,0.000,2.420,0.000,1.670,0.760,0.050,0.193,39.650,0.605
230.547,98.860,35.280,144.720,7766.000,0.000,0.440,0.000,0.310,0.120,0.010,0.226,35.180,0.057
230.620,86.900,36.260,143.740,9602.000,0.000,0.440,0.000,0.310,0.120,0.010,0.228,36.160,0.046
230.692,75.740,42.590,137.410,7884.000,0.000,0.280,0.000,0.060,0.220,-0.010,0.215,42.490,0.036
230.764,66.500,53.630,126.370,8900.000,0.000,0.280,0.000,0.060,0.220,-0.010,0.178,53.530,0.031
230.836,60.090,68.280,111.720,6910.000,0.000,0.280,0.000,0.060,0.220,-0.010,0.124,68.180,0.041
230.907,57.140,85.340,94.660,6518.000,0.000,1.340,0.000,0.570,0.760,-0.010,0.057,85.240,0.206
230.980,57.980,102.400,77.600,3552.000,0.000,1.340,0.000,0.570,0.760,-0.010,0.016,102.300,0.377
231.052,62.490,118.470,61.530,6508.000,0.000,1.340,0.000,0.570,0.760,-0.010,0.087,118.370,0.206
231.123,70.230,131.710,48.290,8696.000,0.000,1.540,0.000,0.520,1.010,-0.030,0.150,131.610,0.177
231.195,80.590,140.890,39.110,3992.000,0.000,1.540,0.000,0.520,1.010,-0.030,0.200,140.790,0.386
231.267,92.090,144.840,35.160,8982.000,0.000,0.420,0.000,0.180,0.240,-0.000,0.222,144.740,0.047
231.340,104.200,143.370,36.630,7654.000,0.000,0.420,0.000,0.180,0.240,-0.000,0.230,143.270,0.055
231.413,115.220,136.570,43.430,6584.000,0.000,0.420,0.000,0.180,0.240,-0.000,0.212,136.470,0.064
231.484,124.230,125.140,54.860,9834.000,0.000,-0.340,0.000,-0.290,-0.050,-0.010,0.174,125.040,-0.035
231.557,130.340,110.210,69.790,6272.000,0.000,-0.340,0.000,-0.290,-0.050,-0.010,0.117,110.110,-0.054
231.628,132.940,93.040,86.960,7370.000,0.000,2.020,0.000,1.580,0.440,0.060,0.050,92.940,0.274
231.701,131.750,76.020,103.980,2978.000,0.000,2.020,0.000,1.580,0.440,0.060,0.023,75.920,0.678
231.773,126.920,60.150,119.850,6374.000,0.000,2.020,0.000,1.580,0.440,0.060,0.093,60.050,0.317
231.845,118.780,47.100,132.900,7950.000,0.000,1.160,0.000,0.550,0.610,-0.000,0.157,47.000,0.146
231.918,108.520,38.600,141.400,5950.000,0.000,1.160,0.000,0.550,0.610,-0.000,0.195,38.500,0.195
231.989,96.620,35.050,144.950,9266.000,0.000,1.160,0.000,0.550,0.610,-0.000,0.233,34.950,0.125
232.061,84.720,37.050,142.950,8658.000,0.000,0.100,0.000,0.140,-0.050,0.010,0.229,36.950,0.012
232.134,73.700,44.450,135.550,8680.000,0.000,0.100,0.000,0.140,-0.050,0.010,0.211,44.350,0.012
232.205,65.060,56.130,123.870,6868.000,0.000,0.940,0.000,0.480,0.460,0.000,0.168,56.030,0.137
232.277,59.260,71.300,108.700,5784.000,0.000,0.940,0.000,0.480,0.460,0.000,0.112,71.200,0.163
232.348,57.010,88.580,91.420,4922.000,0.000,0.940,0.000,0.480,0.460,0.000,0.044,88.480,0.191
232.421,58.550,105.540,74.460,8906.000,0.000,1.340,0.000,0.550,0.790,-0.010,0.029,105.440,0.150
232.492,63.710,121.200,58.800,6512.000,0.000,1.340,0.000,0.550,0.790,-0.010,0.100,121.100,0.206
232.564,72.110,133.900,46.100,8568.000,0.000,1.340,0.000,0.550,0.790,-0.010,0.162,133.800,0.156
232.636,82.530,141.960,38.040,4010.000,0.000,1.160,0.000,0.300,0.860,-0.030,0.201,141.860,0.289
232.709,94.330,144.990,35.010,7744.000,0.000,1.160,0.000,0.300,0.860,-0.030,0.227,144.890,0.150
232.781,106.360,142.490,37.510,7354.000,0.000,-0.340,0.000,-0.130,-0.200,0.000,0.230,142.390,-0.046
232.854,116.950,134.900,45.100,6468.000,0.000,-0.340,0.000,-0.130,-0.200,0.000,0.203,134.800,-0.053
232.926,125.620,122.580,57.420,9506.000,0.000,-0.340,0.000,-0.130,-0.200,0.000,0.167,122.480,-0.036
232.998,131.100,107.160,72.840,5400.000,0.000,0.270,0.000,0.210,0.060,0.010,0.105,107.060,0.050
233.070,133.000,90.030,89.970,7500.000,0.000,0.270,0.000,0.210,0.060,0.010,0.037,89.930,0.036
233.143,131.120,72.910,107.090,11088.000,0.000,2.390,0.000,1.680,0.710,0.050,0.036,72.810,0.216
233.214,125.550,57.280,122.720,5298.000,0.000,2.390,0.000,1.680,0.710,0.050,0.109,57.180,0.451
233.286,116.990,45.140,134.860,8170.000,0.000,2.390,0.000,1.680,0.710,0.050,0.165,45.040,0.293
233.358,106.240,37.460,142.540,6476.000,0.000,0.720,0.000,0.350,0.380,-0.000,0.206,37.360,0.111
233.430,94.380,35.010,144.990,9494.000,0.000,0.720,0.000,0.350,0.380,-0.000,0.230,34.910,0.076
233.502,82.420,38.100,141.900,9618.000,0.000,0.720,0.000,0.350,0.380,-0.000,0.230,38.000,0.075
233.574,72.010,46.200,133.800,8406.000,0.000,0.330,0.000,0.230,0.100,0.010,0.201,46.100,0.039
233.647,63.730,58.740,121.260,8742.000,0.000,0.330,0.000,0.230,0.100,0.010,0.159,58.640,0.038
233.718,58.520,74.620,105.380,3920.000,0.000,1.680,0.000,0.460,1.220,-0.040,0.101,74.520,0.429
233.790,57.020,91.590,88.410,5220.000,0.000,1.680,0.000,0.460,1.220,-0.040,0.029,91.490,0.322
233.862,59.250,108.630,71.370,9702.000,0.000,1.680,0.000,0.460,1.220,-0.040,0.043,108.530,0.173
233.934,65.140,124.010,55.990,6730.000,0.000,1.120,0.000,0.280,0.840,-0.030,0.114,123.910,0.166
234.006,73.800,135.640,44.360,7536.000,0.000,1.120,0.000,0.280,0.840,-0.030,0.167,135.540,0.149
234.078,84.670,142.930,37.070,7726.000,0.000,0.340,0.000,0.380,-0.040,0.020,0.211,142.830,0.044
234.150,96.740,144.940,35.060,9412.000,0.000,0.340,0.000,0.380,-0.040,0.020,0.232,144.840,0.036
