Used Parameters:
Used Foils:,cambered_foils
Waterspeed:,0.0
Frequency:,0.8
Heave Amplitude:,38
Pitch Amplitude:,35
Camber Amplitude,90
Pitch Phase,0
Camber Phase,0
Turn Rate,0
Test Duration,10

Statistical Evaluation:
Time,Heave_pos,Pitch_right,Pitch_left,Power_consumption,Noise,Fx,Fz,Mx,My,Mz,Inflow_velocity,Angle_of_attack,Efficiency
average,94.923,89.057,90.943,7451.763,0.000,1.033,0.000,0.519,0.514,0.000,0.166,88.957,0.13862491332588006
max,133.000,125.000,125.000,11822.000,0.000,2.640,0.000,1.700,1.130,0.050,0.269,124.900,0.725
min,57.000,55.000,55.000,1890.000,0.000,-0.340,0.000,-0.370,-0.190,-0.040,0.012,54.900,-0.058
std. dev,27.291,24.551,24.551,1917.363,0.000,0.649,0.000,0.414,0.352,0.021,0.081,24.551,0.128
Complete Data:,,,,,,,,,,,,,
Time,Heave_pos,Pitch_right,Pitch_left,Power_consumption,Noise,Fx,Fz,Mx,My,Mz,Inflow_velocity,Angle_of_attack,Efficiency
43.134,58.150,98.530,81.470,12082.000,0.000,-0.070,0.000,-0.020,-0.060,0.000,0.001,98.430,-0.006
43.206,63.810,110.000,70.000,4902.000,0.000,-0.060,0.000,-0.010,-0.050,0.000,0.109,109.900,-0.012
43.279,73.520,118.870,61.130,5850.000,0.000,-0.060,0.000,-0.010,-0.050,0.000,0.183,118.770,-0.010
43.350,86.010,124.010,55.990,8242.000,0.000,-0.060,0.000,-0.010,-0.050,0.000,0.246,123.910,-0.007
43.421,99.480,124.760,55.240,9034.000,0.000,0.000,0.000,0.000,-0.000,0.000,0.261,124.660,0.000
43.494,112.720,120.960,59.040,7862.000,0.000,0.000,0.000,0.000,-0.000,0.000,0.253,120.860,0.000
43.566,123.470,113.180,66.820,6658.000,0.000,0.000,0.000,0.000,-0.000,0.000,0.207,113.080,0.000
43.638,130.540,102.390,77.610,9306.000,0.000,0.260,0.000,0.010,0.250,-0.010,0.136,102.290,0.028
43.710,133.000,90.000,90.000,8454.000,0.000,0.260,0.000,0.010,0.250,-0.010,0.048,89.900,0.031
43.782,130.540,77.610,102.390,5574.000,0.000,1.780,0.000,1.080,0.710,0.020,0.047,77.510,0.319
43.854,123.470,66.820,113.180,7832.000,0.000,1.780,0.000,1.080,0.710,0.020,0.136,66.720,0.227
43.927,112.720,59.040,120.960,7462.000,0.000,1.780,0.000,1.080,0.710,0.020,0.206,58.940,0.239
43.999,99.480,55.240,124.760,10008.000,0.000,0.730,0.000,0.480,0.250,0.010,0.255,55.140,0.073
44.070,85.830,56.030,123.970,7006.000,0.000,0.730,0.000,0.480,0.250,0.010,0.264,55.930,0.104
44.142,73.520,61.130,118.870,8044.000,0.000,0.730,0.000,0.480,0.250,0.010,0.238,61.030,0.091
44.214,63.710,70.150,109.850,8596.000,0.000,0.520,0.000,0.270,0.250,0.000,0.189,70.050,0.060
44.286,58.100,81.640,98.360,8930.000,0.000,0.520,0.000,0.270,0.250,0.000,0.109,81.540,0.058
44.358,57.250,94.040,85.960,7926.000,0.000,1.890,0.000,0.830,1.060,-0.010,0.016,93.940,0.238
44.430,61.250,106.090,73.910,7190.000,0.000,1.890,0.000,0.830,1.060,-0.010,0.077,105.990,0.263
44.502,69.760,116.170,63.830,6508.000,0.000,1.890,0.000,0.830,1.060,-0.010,0.164,116.070,0.290
44.574,81.280,122.640,57.360,9198.000,0.000,1.620,0.000,0.760,0.870,-0.010,0.223,122.540,0.176
44.646,94.710,125.000,55.000,5502.000,0.000,1.620,0.000,0.760,0.870,-0.010,0.259,124.900,0.294
44.719,108.370,122.760,57.240,5826.000,0.000,-0.340,0.000,-0.370,0.030,-0.020,0.262,122.660,-0.058
44.791,119.950,116.400,63.600,8156.000,0.000,-0.340,0.000,-0.370,0.030,-0.020,0.222,116.300,-0.042
44.863,128.570,106.400,73.600,8306.000,0.000,-0.340,0.000,-0.370,0.030,-0.020,0.165,106.300,-0.041
44.935,132.700,94.390,85.610,8098.000,0.000,0.990,0.000,0.430,0.560,-0.010,0.081,94.290,0.122
45.007,131.900,81.640,98.360,2562.000,0.000,0.990,0.000,0.430,0.560,-0.010,0.015,81.540,0.386
45.079,126.400,70.290,109.710,7484.000,0.000,0.990,0.000,0.430,0.560,-0.010,0.106,70.190,0.132
45.152,116.790,61.330,118.670,10194.000,0.000,1.370,0.000,1.050,0.320,0.040,0.183,61.230,0.134
45.224,104.170,56.030,123.970,1890.000,0.000,1.370,0.000,1.050,0.320,0.040,0.244,55.930,0.725
45.295,90.710,55.220,124.780,6570.000,0.000,0.500,0.000,0.380,0.120,0.010,0.262,55.120,0.076
45.367,77.450,58.960,121.040,7190.000,0.000,0.500,0.000,0.380,0.120,0.010,0.255,58.860,0.070
45.439,66.650,66.690,113.310,7570.000,0.000,0.500,0.000,0.380,0.120,0.010,0.209,66.590,0.066
45.512,59.600,77.280,102.720,10208.000,0.000,0.890,0.000,0.270,0.630,-0.020,0.136,77.180,0.087
45.582,57.000,89.820,90.180,4256.000,0.000,0.890,0.000,0.270,0.630,-0.020,0.051,89.720,0.209
45.655,59.390,102.230,77.770,8886.000,0.000,1.780,0.000,0.750,1.030,-0.010,0.046,102.130,0.200
45.727,66.280,112.910,67.090,5606.000,0.000,1.780,0.000,0.750,1.030,-0.010,0.132,112.810,0.318
45.799,76.940,120.800,59.200,8868.000,0.000,1.780,0.000,0.750,1.030,-0.010,0.207,120.700,0.201
45.871,90.140,124.710,55.290,8310.000,0.000,1.030,0.000,0.600,0.440,0.010,0.255,124.610,0.124
45.944,103.620,124.090,55.910,5328.000,0.000,1.030,0.000,0.600,0.440,0.010,0.257,123.990,0.193
46.016,116.320,118.970,61.030,6298.000,0.000,1.030,0.000,0.600,0.440,0.010,0.245,118.870,0.164
46.088,126.080,110.140,69.860,8260.000,0.000,-0.110,0.000,-0.230,0.120,-0.020,0.187,110.040,-0.013
46.160,131.850,98.530,81.470,8070.000,0.000,-0.110,0.000,-0.230,0.120,-0.020,0.112,98.430,-0.014
46.232,132.770,86.140,93.860,8818.000,0.000,1.360,0.000,0.800,0.570,0.010,0.018,86.040,0.154
46.305,128.840,74.070,105.930,4610.000,0.000,1.360,0.000,0.800,0.570,0.010,0.075,73.970,0.295
46.377,120.380,63.950,116.050,7320.000,0.000,1.360,0.000,0.800,0.570,0.010,0.163,63.850,0.186
46.449,108.900,57.430,122.570,7668.000,0.000,1.660,0.000,1.060,0.590,0.020,0.221,57.330,0.216
46.520,95.290,55.000,125.000,4662.000,0.000,1.660,0.000,1.060,0.590,0.020,0.264,54.900,0.356
46.592,81.810,57.170,122.830,5994.000,0.000,0.290,0.000,0.220,0.060,0.010,0.261,57.070,0.048
46.664,70.190,63.490,116.510,8850.000,0.000,0.290,0.000,0.220,0.060,0.010,0.223,63.390,0.033
46.737,61.520,73.450,106.550,10204.000,0.000,0.290,0.000,0.220,0.060,0.010,0.165,73.350,0.028
46.808,57.320,85.440,94.560,8480.000,0.000,1.290,0.000,0.310,0.980,-0.030,0.082,85.340,0.152
46.880,57.970,97.850,82.150,4640.000,0.000,1.290,0.000,0.310,0.980,-0.030,0.013,97.750,0.278
46.953,63.490,109.560,70.440,7980.000,0.000,1.290,0.000,0.310,0.980,-0.030,0.105,109.460,0.162
47.025,73.050,118.570,61.430,6324.000,0.000,1.870,0.000,0.940,0.930,0.000,0.184,118.470,0.296
47.097,85.270,123.830,56.170,6866.000,0.000,1.870,0.000,0.940,0.930,0.000,0.236,123.730,0.272
47.169,99.100,124.800,55.200,5324.000,0.000,0.340,0.000,0.170,0.170,0.000,0.267,124.700,0.064
47.241,112.210,121.210,58.790,5886.000,0.000,0.340,0.000,0.170,0.170,0.000,0.251,121.110,0.058
47.314,123.220,113.440,66.560,9648.000,0.000,0.340,0.000,0.170,0.170,0.000,0.211,113.340,0.035
47.386,130.330,102.880,77.120,6812.000,0.000,0.610,0.000,0.110,0.500,-0.020,0.137,102.780,0.090
47.458,133.000,90.350,89.650,7166.000,0.000,0.610,0.000,0.110,0.500,-0.020,0.051,90.250,0.085
47.530,130.670,77.940,102.060,6986.000,0.000,0.610,0.000,0.110,0.500,-0.020,0.045,77.840,0.087
47.602,123.850,67.220,112.780,6308.000,0.000,1.320,0.000,1.090,0.220,0.040,0.132,67.120,0.209
47.674,113.060,59.200,120.800,8922.000,0.000,1.320,0.000,1.090,0.220,0.040,0.208,59.100,0.148
47.746,100.050,55.310,124.690,6098.000,0.000,1.000,0.000,0.770,0.230,0.030,0.251,55.210,0.164
47.818,86.380,55.910,124.090,6436.000,0.000,1.000,0.000,0.770,0.230,0.030,0.263,55.810,0.155
47.890,73.840,60.930,119.070,6092.000,0.000,1.000,0.000,0.770,0.230,0.030,0.242,60.830,0.164
47.962,63.920,69.860,110.140,7720.000,0.000,0.540,0.000,0.110,0.430,-0.020,0.192,69.760,0.070
48.034,58.240,81.130,98.870,8894.000,0.000,0.540,0.000,0.110,0.430,-0.020,0.110,81.030,0.061
48.106,57.210,93.690,86.310,3162.000,0.000,1.450,0.000,0.540,0.910,-0.020,0.020,93.590,0.459
48.178,61.080,105.770,74.230,7294.000,0.000,1.450,0.000,0.540,0.910,-0.020,0.074,105.670,0.199
48.250,69.480,115.930,64.070,7340.000,0.000,1.450,0.000,0.540,0.910,-0.020,0.163,115.830,0.198
48.322,80.920,122.510,57.490,6692.000,0.000,1.300,0.000,0.820,0.470,0.020,0.221,122.410,0.194
48.394,94.330,124.990,55.010,4826.000,0.000,1.300,0.000,0.820,0.470,0.020,0.259,124.890,0.269
48.467,108.010,122.890,57.110,3946.000,0.000,1.300,0.000,0.820,0.470,0.020,0.261,122.790,0.329
48.539,119.660,116.630,63.370,8150.000,0.000,0.030,0.000,0.220,-0.190,0.020,0.225,116.530,0.004
48.611,128.390,106.710,73.290,8418.000,0.000,0.030,0.000,0.220,-0.190,0.020,0.167,106.610,0.004
48.683,132.650,94.740,85.260,7072.000,0.000,1.250,0.000,0.230,1.020,-0.040,0.082,94.640,0.177
48.755,132.030,82.150,97.850,6600.000,0.000,1.250,0.000,0.230,1.020,-0.040,0.012,82.050,0.189
48.828,126.620,70.580,109.420,6730.000,0.000,1.250,0.000,0.230,1.020,-0.040,0.103,70.480,0.186
48.899,116.950,61.430,118.570,6622.000,0.000,1.470,0.000,1.020,0.440,0.030,0.187,61.330,0.222
48.972,104.730,56.170,123.830,4574.000,0.000,1.470,0.000,1.020,0.440,0.030,0.234,56.070,0.321
49.043,90.900,55.200,124.800,4466.000,0.000,0.800,0.000,0.670,0.130,0.030,0.269,55.100,0.179
49.115,77.790,58.790,121.210,5876.000,0.000,0.800,0.000,0.670,0.130,0.030,0.252,58.690,0.136
49.188,67.040,66.300,113.700,5614.000,0.000,0.800,0.000,0.670,0.130,0.030,0.207,66.200,0.143
49.260,59.670,77.120,102.880,7608.000,0.000,1.050,0.000,0.270,0.780,-0.030,0.142,77.020,0.138
49.331,57.000,89.470,90.530,8402.000,0.000,1.050,0.000,0.270,0.780,-0.030,0.052,89.370,0.125
49.403,59.260,101.900,78.100,4826.000,0.000,1.050,0.000,0.270,0.780,-0.030,0.044,101.800,0.218
49.475,66.150,112.780,67.220,7566.000,0.000,1.600,0.000,0.520,1.080,-0.030,0.133,112.680,0.211
49.547,76.780,120.710,59.290,7314.000,0.000,1.600,0.000,0.520,1.080,-0.030,0.205,120.610,0.219
49.619,89.760,124.670,55.330,9218.000,0.000,0.990,0.000,0.700,0.290,0.020,0.250,124.570,0.107
49.692,103.430,124.130,55.870,9276.000,0.000,0.990,0.000,0.700,0.290,0.020,0.261,124.030,0.107
49.764,116.000,119.170,60.830,5928.000,0.000,0.990,0.000,0.700,0.290,0.020,0.243,119.070,0.167
49.837,125.970,110.290,69.710,10990.000,0.000,0.040,0.000,-0.110,0.150,-0.010,0.189,110.190,0.004
49.908,131.760,98.870,81.130,8886.000,0.000,0.040,0.000,-0.110,0.150,-0.010,0.113,98.770,0.005
49.980,132.790,86.310,93.690,5378.000,0.000,2.640,0.000,1.510,1.130,0.020,0.020,86.210,0.491
50.054,128.920,74.230,105.770,10244.000,0.000,2.640,0.000,1.510,1.130,0.020,0.073,74.130,0.258
50.125,120.660,64.190,115.810,4918.000,0.000,2.640,0.000,1.510,1.130,0.020,0.160,64.090,0.537
50.197,109.080,57.490,122.510,9050.000,0.000,0.780,0.000,0.430,0.350,0.000,0.223,57.390,0.086
50.269,95.480,55.000,125.000,9140.000,0.000,0.780,0.000,0.430,0.350,0.000,0.264,54.900,0.085
50.341,81.990,57.110,122.890,9254.000,0.000,0.780,0.000,0.430,0.350,0.000,0.260,57.010,0.084
50.414,70.190,63.490,116.510,11822.000,0.000,0.290,0.000,0.250,0.040,0.010,0.226,63.390,0.025
50.485,61.610,73.290,106.710,8386.000,0.000,0.290,0.000,0.250,0.040,0.010,0.166,73.190,0.035
50.557,57.350,85.260,94.740,8406.000,0.000,1.620,0.000,0.840,0.780,0.000,0.083,85.160,0.193
50.629,57.970,97.850,82.150,3674.000,0.000,1.620,0.000,0.840,0.780,0.000,0.012,97.750,0.441
50.701,63.380,109.420,70.580,7360.000,0.000,1.620,0.000,0.840,0.780,0.000,0.104,109.320,0.220
50.774,72.900,118.470,61.530,10348.000,0.000,1.340,0.000,0.400,0.950,-0.030,0.182,118.370,0.129
50.845,85.270,123.830,56.170,8296.000,0.000,1.340,0.000,0.400,0.950,-0.030,0.239,123.730,0.162
50.918,98.910,124.810,55.190,9838.000,0.000,1.340,0.000,0.400,0.950,-0.030,0.263,124.710,0.136
50.990,112.040,121.280,58.720,9440.000,0.000,0.570,0.000,0.300,0.280,0.000,0.252,121.180,0.060
51.063,122.960,113.700,66.300,10778.000,0.000,0.570,0.000,0.300,0.280,0.000,0.208,113.600,0.053
51.135,130.330,102.880,77.120,11118.000,0.000,0.630,0.000,0.050,0.580,-0.030,0.142,102.780,0.057
51.207,133.000,90.530,89.470,7366.000,0.000,0.630,0.000,0.050,0.580,-0.030,0.052,90.430,0.086
51.279,130.800,78.270,101.730,6564.000,0.000,0.630,0.000,0.050,0.580,-0.030,0.042,78.170,0.096
51.351,123.850,67.220,112.780,6040.000,0.000,2.480,0.000,1.700,0.780,0.050,0.134,67.120,0.411
51.424,113.220,59.290,120.710,6554.000,0.000,2.480,0.000,1.700,0.780,0.050,0.204,59.190,0.378
51.496,100.050,55.310,124.690,10326.000,0.000,0.540,0.000,0.420,0.110,0.020,0.253,55.210,0.052
51.568,86.570,55.870,124.130,9666.000,0.000,0.540,0.000,0.420,0.110,0.020,0.262,55.770,0.056
51.640,73.840,60.930,119.070,10532.000,0.000,0.540,0.000,0.420,0.110,0.020,0.245,60.830,0.051
51.712,64.030,69.710,110.290,10014.000,0.000,0.840,0.000,0.300,0.530,-0.010,0.189,69.610,0.084
51.783,58.240,81.130,98.870,8796.000,0.000,0.840,0.000,0.300,0.530,-0.010,0.113,81.030,0.095
51.855,57.210,93.690,86.310,7134.000,0.000,0.840,0.000,0.300,0.530,-0.010,0.020,93.590,0.118
51.928,61.160,105.930,74.070,6108.000,0.000,1.820,0.000,0.800,1.020,-0.010,0.075,105.830,0.298
52.000,69.340,115.810,64.190,8524.000,0.000,1.820,0.000,0.800,1.020,-0.010,0.157,115.710,0.214
