Used Parameters:
Used Foils:,cambered_foils
Waterspeed:,0.0
Frequency:,0.5
Heave Amplitude:,38
Pitch Amplitude:,20
Camber Amplitude,90
Pitch Phase,0
Camber Phase,0
Turn Rate,0
Test Duration,10

Statistical Evaluation:
Time,Heave_pos,Pitch_right,Pitch_left,Power_consumption,Noise,Fx,Fz,Mx,My,Mz,Inflow_velocity,Angle_of_attack,Efficiency
average,93.214,90.784,89.216,4811.404,0.000,0.467,0.000,0.253,0.215,0.001,0.107,90.684,0.130
max,132.980,110.000,110.000,8052.000,0.000,1.220,0.000,0.920,0.680,0.050,0.169,109.900,0.741
min,57.000,70.000,70.000,1052.000,0.000,-0.050,0.000,0.000,-0.050,-0.020,0.001,69.900,-0.009
std. dev,26.850,14.236,14.236,1675.708,0.000,0.390,0.000,0.248,0.225,0.014,0.051,14.236,0.144

Complete Data:
Time,Heave_pos,Pitch_right,Pitch_left,Power_consumption,Noise,Fx,Fz,Mx,My,Mz,Inflow_velocity,Angle_of_attack,Efficiency
394.443,57.990,94.550,85.450,3044.000,0.000,-0.070,0.000,-0.000,-0.070,0.000,0.019,94.450,-0.023
394.515,60.820,98.740,81.260,5426.000,0.000,-0.040,0.000,0.010,-0.050,0.000,0.054,98.640,-0.007
394.587,65.420,102.550,77.450,3480.000,0.000,-0.040,0.000,0.010,-0.050,0.000,0.088,102.450,-0.011
394.659,71.520,105.730,74.270,5794.000,0.000,-0.040,0.000,0.010,-0.050,0.000,0.117,105.630,-0.007
394.731,78.820,108.100,71.900,3946.000,0.000,-0.030,0.000,0.010,-0.040,0.000,0.142,108.000,-0.008
394.802,86.940,109.550,70.450,6666.000,0.000,-0.030,0.000,0.010,-0.040,0.000,0.158,109.450,-0.005
394.875,95.480,110.000,70.000,6186.000,0.000,-0.020,0.000,0.010,-0.030,0.000,0.164,109.900,-0.003
394.948,103.990,109.430,70.570,5004.000,0.000,-0.020,0.000,0.010,-0.030,0.000,0.163,109.330,-0.004
395.020,112.040,107.880,72.120,5866.000,0.000,-0.020,0.000,0.010,-0.030,0.000,0.155,107.780,-0.003
395.092,119.310,105.370,74.630,2736.000,0.000,0.150,0.000,0.030,0.120,-0.000,0.140,105.270,0.055
395.164,125.240,102.110,77.890,4018.000,0.000,0.150,0.000,0.030,0.120,-0.000,0.114,102.010,0.037
395.235,129.580,98.290,81.710,2608.000,0.000,0.520,0.000,0.360,0.170,0.010,0.085,98.190,0.199
395.307,132.260,93.930,86.070,1550.000,0.000,0.520,0.000,0.360,0.170,0.010,0.052,93.830,0.335
395.379,132.980,89.430,90.570,3928.000,0.000,0.520,0.000,0.360,0.170,0.010,0.014,89.330,0.132
395.451,131.810,85.030,94.970,2524.000,0.000,0.220,0.000,0.110,0.120,-0.000,0.023,84.930,0.087
395.523,128.750,80.810,99.190,2714.000,0.000,0.220,0.000,0.110,0.120,-0.000,0.059,80.710,0.081
395.596,123.900,77.010,102.990,2942.000,0.000,0.220,0.000,0.110,0.120,-0.000,0.093,76.910,0.075
395.668,117.720,73.970,106.030,5774.000,0.000,0.020,0.000,0.060,-0.040,0.000,0.120,73.870,0.003
395.740,110.200,71.670,108.330,5306.000,0.000,0.020,0.000,0.060,-0.040,0.000,0.145,71.570,0.004
395.812,102.000,70.340,109.660,5414.000,0.000,0.690,0.000,0.330,0.360,-0.000,0.157,70.240,0.127
395.884,93.570,70.010,109.990,5806.000,0.000,0.690,0.000,0.330,0.360,-0.000,0.164,69.910,0.119
395.956,84.970,70.710,109.290,6390.000,0.000,0.690,0.000,0.330,0.360,-0.000,0.165,70.610,0.108
396.028,77.010,72.380,107.620,6476.000,0.000,1.020,0.000,0.460,0.560,-0.010,0.153,72.280,0.158
396.100,69.870,75.000,105.000,5446.000,0.000,1.020,0.000,0.460,0.560,-0.010,0.137,74.900,0.187
396.172,64.190,78.300,101.700,3464.000,0.000,0.910,0.000,0.370,0.540,-0.010,0.110,78.200,0.263
396.244,59.980,82.230,97.770,4502.000,0.000,0.910,0.000,0.370,0.540,-0.010,0.082,82.130,0.202
396.315,57.570,86.560,93.440,4182.000,0.000,0.910,0.000,0.370,0.540,-0.010,0.047,86.460,0.218
396.387,57.050,91.070,88.930,4980.000,0.000,0.510,0.000,0.260,0.250,0.000,0.010,90.970,0.102
396.459,58.480,95.520,84.480,1940.000,0.000,0.510,0.000,0.260,0.250,0.000,0.028,95.420,0.263
396.531,61.760,99.690,80.310,5642.000,0.000,0.510,0.000,0.260,0.250,0.000,0.063,99.590,0.090
396.603,66.650,103.320,76.680,5252.000,0.000,0.070,0.000,0.040,0.040,-0.000,0.094,103.220,0.013
396.675,73.050,106.330,73.670,4128.000,0.000,0.070,0.000,0.040,0.040,-0.000,0.124,106.230,0.017
396.747,80.680,108.530,71.470,4634.000,0.000,0.090,0.000,0.040,0.050,-0.000,0.147,108.430,0.019
396.819,88.820,109.730,70.270,7700.000,0.000,0.090,0.000,0.040,0.050,-0.000,0.157,109.630,0.012
396.891,97.390,109.960,70.040,5778.000,0.000,0.090,0.000,0.040,0.050,-0.000,0.165,109.860,0.016
396.964,105.950,109.150,70.850,6086.000,0.000,0.120,0.000,0.120,0.000,0.010,0.163,109.050,0.020
397.036,113.720,107.400,72.600,6672.000,0.000,0.120,0.000,0.120,0.000,0.010,0.150,107.300,0.018
397.108,120.750,104.710,75.290,1318.000,0.000,0.120,0.000,0.120,0.000,0.010,0.135,104.610,0.091
397.181,126.360,101.290,78.710,4732.000,0.000,0.950,0.000,0.920,0.030,0.050,0.108,101.190,0.201
397.252,130.420,97.250,82.750,3530.000,0.000,0.950,0.000,0.920,0.030,0.050,0.079,97.150,0.269
397.324,132.590,92.940,87.060,3798.000,0.000,0.610,0.000,0.220,0.390,-0.010,0.042,92.840,0.161
397.397,132.880,88.430,91.570,7192.000,0.000,0.610,0.000,0.220,0.390,-0.010,0.006,88.330,0.085
397.468,131.210,83.940,96.060,1940.000,0.000,0.610,0.000,0.220,0.390,-0.010,0.032,83.840,0.314
397.541,127.770,79.870,100.130,5688.000,0.000,-0.050,0.000,0.000,-0.050,0.000,0.066,79.770,-0.009
397.613,122.540,76.220,103.780,5796.000,0.000,-0.050,0.000,0.000,-0.050,0.000,0.101,76.120,-0.009
397.685,115.960,73.320,106.680,6420.000,0.000,0.030,0.000,0.030,0.010,0.000,0.126,73.220,0.005
397.757,108.430,71.290,108.710,6544.000,0.000,0.030,0.000,0.030,0.010,0.000,0.145,71.190,0.005
397.829,100.000,70.170,109.830,5242.000,0.000,0.030,0.000,0.030,0.010,0.000,0.163,70.070,0.006
397.901,91.420,70.090,109.910,5050.000,0.000,0.730,0.000,0.220,0.510,-0.020,0.166,69.990,0.145
397.973,83.030,71.020,108.980,3510.000,0.000,0.730,0.000,0.220,0.510,-0.020,0.162,70.920,0.208
398.045,75.250,72.910,107.090,6304.000,0.000,0.730,0.000,0.220,0.510,-0.020,0.150,72.810,0.116
398.117,68.470,75.680,104.320,7002.000,0.000,1.220,0.000,0.580,0.640,-0.000,0.130,75.580,0.174
398.189,63.040,79.180,100.820,3408.000,0.000,1.220,0.000,0.580,0.640,-0.000,0.105,79.080,0.358
398.261,59.250,83.230,96.770,4136.000,0.000,0.780,0.000,0.260,0.520,-0.010,0.074,83.130,0.189
398.333,57.270,87.620,92.380,2586.000,0.000,0.780,0.000,0.260,0.520,-0.010,0.038,87.520,0.302
398.404,57.230,92.190,87.810,1052.000,0.000,0.780,0.000,0.260,0.520,-0.010,0.001,92.090,0.741
398.476,59.090,96.540,83.460,6140.000,0.000,0.350,0.000,0.110,0.240,-0.010,0.036,96.440,0.057
398.548,62.790,100.610,79.390,3766.000,0.000,0.350,0.000,0.110,0.240,-0.010,0.071,100.510,0.093
398.621,68.130,104.140,75.860,6996.000,0.000,-0.020,0.000,0.030,-0.050,0.000,0.102,104.040,-0.003
398.693,74.840,106.950,73.050,5532.000,0.000,-0.020,0.000,0.030,-0.050,0.000,0.129,106.850,-0.004
398.765,82.580,108.900,71.100,5272.000,0.000,-0.020,0.000,0.030,-0.050,0.000,0.149,108.800,-0.004
398.837,90.950,109.890,70.110,7108.000,0.000,-0.010,0.000,0.020,-0.020,0.000,0.162,109.790,-0.001
398.908,99.530,109.860,70.140,6184.000,0.000,-0.010,0.000,0.020,-0.020,0.000,0.166,109.760,-0.002
398.981,107.870,108.820,71.180,6602.000,0.000,-0.010,0.000,0.020,-0.020,0.000,0.159,108.720,-0.002
399.054,115.660,106.780,73.220,3968.000,0.000,0.510,0.000,0.270,0.230,0.000,0.149,106.680,0.129
399.126,122.210,103.960,76.040,5076.000,0.000,0.510,0.000,0.270,0.230,0.000,0.126,103.860,0.100
399.198,127.520,100.340,79.660,5102.000,0.000,0.580,0.000,0.530,0.060,0.020,0.102,100.240,0.114
399.269,131.100,96.240,83.760,2592.000,0.000,0.580,0.000,0.530,0.060,0.020,0.070,96.140,0.224
399.342,132.830,91.880,88.120,5092.000,0.000,0.580,0.000,0.530,0.060,0.020,0.033,91.780,0.114
399.414,132.650,87.310,92.690,2372.000,0.000,0.400,0.000,0.180,0.220,-0.000,0.003,87.210,0.169
399.486,130.550,82.930,97.070,5016.000,0.000,0.400,0.000,0.180,0.220,-0.000,0.040,82.830,0.080
399.559,126.560,78.860,101.140,2196.000,0.000,0.400,0.000,0.180,0.220,-0.000,0.076,78.760,0.182
399.631,121.100,75.460,104.540,4906.000,0.000,0.030,0.000,0.030,-0.000,0.000,0.105,75.360,0.006
399.703,114.240,72.750,107.250,5528.000,0.000,0.030,0.000,0.030,-0.000,0.000,0.132,72.650,0.005
399.775,106.290,70.900,109.100,6852.000,0.000,0.210,0.000,0.060,0.160,-0.010,0.153,70.800,0.031
399.847,97.980,70.060,109.940,6318.000,0.000,0.210,0.000,0.060,0.160,-0.010,0.161,69.960,0.033
399.918,89.290,70.230,109.770,6230.000,0.000,0.210,0.000,0.060,0.160,-0.010,0.169,70.130,0.034
399.990,81.010,71.400,108.600,3916.000,0.000,0.860,0.000,0.470,0.390,0.000,0.159,71.300,0.220
400.063,73.540,73.490,106.510,6612.000,0.000,0.860,0.000,0.470,0.390,0.000,0.144,73.390,0.130
400.135,66.970,76.490,103.510,4234.000,0.000,1.030,0.000,0.420,0.610,-0.010,0.127,76.390,0.243
400.206,61.930,80.150,99.850,2812.000,0.000,1.030,0.000,0.420,0.610,-0.010,0.098,80.050,0.366
400.278,58.610,84.240,95.760,5482.000,0.000,1.030,0.000,0.420,0.610,-0.010,0.064,84.140,0.188
400.350,57.070,88.740,91.260,3542.000,0.000,0.680,0.000,0.340,0.340,-0.000,0.030,88.640,0.192
400.422,57.510,93.250,86.750,4492.000,0.000,0.680,0.000,0.340,0.340,-0.000,0.008,93.150,0.151
400.494,59.800,97.540,82.460,4722.000,0.000,0.680,0.000,0.340,0.340,-0.000,0.044,97.440,0.144
400.566,63.910,101.500,78.500,5624.000,0.000,0.230,0.000,0.080,0.150,-0.000,0.079,101.400,0.041
400.638,69.690,104.920,75.080,5450.000,0.000,0.230,0.000,0.080,0.150,-0.000,0.111,104.820,0.042
400.710,76.690,107.530,72.470,4826.000,0.000,0.000,0.000,0.040,-0.040,0.000,0.135,107.430,0.000
400.783,84.510,109.220,70.780,6544.000,0.000,0.000,0.000,0.040,-0.040,0.000,0.150,109.120,0.000
400.855,93.090,109.970,70.030,6170.000,0.000,0.000,0.000,0.040,-0.040,0.000,0.166,109.870,0.000
400.926,101.650,109.690,70.310,5522.000,0.000,0.090,0.000,0.020,0.070,-0.000,0.165,109.590,0.016
400.999,109.870,108.400,71.600,7042.000,0.000,0.090,0.000,0.020,0.070,-0.000,0.158,108.300,0.013
401.071,117.340,106.180,73.820,1580.000,0.000,1.000,0.000,0.850,0.140,0.040,0.143,106.080,0.633
401.144,123.740,103.080,76.920,4464.000,0.000,1.000,0.000,0.850,0.140,0.040,0.123,102.980,0.224
401.215,128.530,99.410,80.590,3594.000,0.000,1.000,0.000,0.850,0.140,0.040,0.093,99.310,0.278
401.287,131.680,95.220,84.780,2300.000,0.000,0.540,0.000,0.350,0.190,0.010,0.061,95.120,0.235
401.360,132.980,90.690,89.310,6262.000,0.000,0.540,0.000,0.350,0.190,0.010,0.025,90.590,0.086
401.432,132.330,86.250,93.750,2202.000,0.000,0.540,0.000,0.350,0.190,0.010,0.013,86.150,0.245
401.504,129.730,81.880,98.120,5806.000,0.000,0.100,0.000,0.010,0.090,-0.000,0.050,81.780,0.017
401.576,125.390,77.990,102.010,1770.000,0.000,0.100,0.000,0.010,0.090,-0.000,0.083,77.890,0.056
401.648,119.500,74.710,105.290,4854.000,0.000,0.010,0.000,0.030,-0.030,0.000,0.114,74.610,0.002
401.721,112.360,72.210,107.790,8052.000,0.000,0.010,0.000,0.030,-0.030,0.000,0.137,72.110,0.001
401.792,104.330,70.610,109.390,5250.000,0.000,0.010,0.000,0.030,-0.030,0.000,0.155,70.510,0.002
401.864,95.720,70.000,110.000,5604.000,0.000,0.620,0.000,0.280,0.340,-0.000,0.166,69.900,0.111
401.936,87.290,70.420,109.580,5784.000,0.000,0.620,0.000,0.280,0.340,-0.000,0.163,70.320,0.107
402.008,79.150,71.820,108.180,6556.000,0.000,1.130,0.000,0.570,0.550,0.000,0.157,71.720,0.172
402.080,71.710,74.200,105.800,6328.000,0.000,1.130,0.000,0.570,0.550,0.000,0.142,74.100,0.179
402.153,65.640,77.300,102.700,4726.000,0.000,1.130,0.000,0.570,0.550,0.000,0.117,77.200,0.239
402.224,60.930,81.140,98.860,3476.000,0.000,0.950,0.000,0.280,0.680,-0.020,0.092,81.040,0.273
402.296,58.020,85.390,94.610,1710.000,0.000,0.950,0.000,0.280,0.680,-0.020,0.056,85.290,0.556
402.368,57.000,89.810,90.190,4270.000,0.000,0.950,0.000,0.280,0.680,-0.020,0.020,89.710,0.222
402.440,57.890,94.300,85.700,2152.000,0.000,0.430,0.000,0.160,0.270,-0.010,0.017,94.200,0.200
402.511,60.720,98.630,81.370,5994.000,0.000,0.430,0.000,0.160,0.270,-0.010,0.055,98.530,0.072
402.583,65.190,102.410,77.590,6662.000,0.000,0.130,0.000,0.060,0.080,-0.000,0.086,102.310,0.020
402.656,71.240,105.610,74.390,4700.000,0.000,0.130,0.000,0.060,0.080,-0.000,0.116,105.510,0.028
402.728,78.500,108.020,71.980,2298.000,0.000,0.130,0.000,0.060,0.080,-0.000,0.140,107.920,0.057
402.800,86.710,109.520,70.480,7218.000,0.000,-0.010,0.000,0.020,-0.030,0.000,0.157,109.420,-0.001
402.872,95.120,110.000,70.000,2186.000,0.000,-0.010,0.000,0.020,-0.030,0.000,0.163,109.900,-0.005
402.945,103.750,109.460,70.540,4866.000,0.000,-0.010,0.000,0.020,-0.030,0.000,0.165,109.360,-0.002
403.017,111.820,107.930,72.070,6078.000,0.000,0.230,0.000,0.100,0.130,-0.000,0.156,107.830,0.038
403.089,119.040,105.490,74.510,3522.000,0.000,0.230,0.000,0.100,0.130,-0.000,0.138,105.390,0.065
403.161,125.030,102.260,77.740,6304.000,0.000,0.890,0.000,0.880,0.010,0.040,0.115,102.160,0.141
403.233,129.530,98.340,81.660,1462.000,0.000,0.890,0.000,0.880,0.010,0.040,0.087,98.240,0.609
403.305,132.190,94.120,85.880,2192.000,0.000,0.890,0.000,0.880,0.010,0.040,0.051,94.020,0.406
