Used Parameters:
Used Foils:,cambered_foils
Waterspeed:,0.0
Frequency:,0.5
Heave Amplitude:,38
Pitch Amplitude:,30
Camber Amplitude,90
Pitch Phase,0
Camber Phase,0
Turn Rate,0
Test Duration,10

Statistical Evaluation:
Time,Heave_pos,Pitch_right,Pitch_left,Power_consumption,Noise,Fx,Fz,Mx,My,Mz,Inflow_velocity,Angle_of_attack,Efficiency
average,93.225,91.181,88.819,4801.115,0.000,0.512,0.000,0.249,0.263,-0.001,0.106,91.081,0.138
max,132.980,120.000,120.000,8260.000,0.000,1.350,0.000,0.820,0.910,0.030,0.166,119.900,0.854
min,57.000,60.000,60.000,1410.000,0.000,-0.050,0.000,0.010,-0.060,-0.030,0.001,59.900,-0.022
std. dev,26.853,21.352,21.352,1559.979,0.000,0.441,0.000,0.223,0.270,0.012,0.051,21.352,0.160

Complete Data:
Time,Heave_pos,Pitch_right,Pitch_left,Power_consumption,Noise,Fx,Fz,Mx,My,Mz,Inflow_velocity,Angle_of_attack,Efficiency
420.470,57.990,96.820,83.180,4110.000,0.000,0.010,0.000,0.030,-0.020,0.000,0.019,96.720,0.002
420.542,60.820,103.110,76.890,4430.000,0.000,0.010,0.000,0.030,-0.020,0.000,0.054,103.010,0.002
420.614,65.420,108.830,71.170,5652.000,0.000,0.010,0.000,0.030,-0.020,0.000,0.089,108.730,0.002
420.686,71.620,113.650,66.350,5770.000,0.000,0.040,0.000,0.040,-0.000,0.000,0.119,113.550,0.007
420.758,78.820,117.140,62.860,4572.000,0.000,0.040,0.000,0.040,-0.000,0.000,0.139,117.040,0.009
420.831,86.940,119.320,60.680,6052.000,0.000,0.080,0.000,0.060,0.020,0.000,0.155,119.220,0.013
420.902,95.480,120.000,60.000,6750.000,0.000,0.080,0.000,0.060,0.020,0.000,0.166,119.900,0.012
420.975,104.100,119.130,60.870,4964.000,0.000,0.080,0.000,0.060,0.020,0.000,0.165,119.030,0.016
421.047,112.040,116.820,63.180,5832.000,0.000,0.420,0.000,0.150,0.270,-0.010,0.153,116.720,0.072
421.119,119.310,113.060,66.940,3430.000,0.000,0.420,0.000,0.150,0.270,-0.010,0.140,112.960,0.122
421.191,125.240,108.160,71.840,4352.000,0.000,0.420,0.000,0.150,0.270,-0.010,0.114,108.060,0.097
421.263,129.630,102.350,77.650,2742.000,0.000,0.700,0.000,0.460,0.240,0.010,0.085,102.250,0.255
421.335,132.260,95.900,84.100,1900.000,0.000,0.700,0.000,0.460,0.240,0.010,0.051,95.800,0.368
421.407,132.980,89.150,90.850,4538.000,0.000,0.430,0.000,0.280,0.150,0.010,0.014,89.050,0.095
421.479,131.810,82.540,97.460,2906.000,0.000,0.430,0.000,0.280,0.150,0.010,0.023,82.440,0.148
421.551,128.690,76.130,103.870,3156.000,0.000,0.430,0.000,0.280,0.150,0.010,0.060,76.030,0.136
421.623,123.900,70.520,109.480,2742.000,0.000,0.060,0.000,0.050,0.010,0.000,0.092,70.420,0.022
421.695,117.620,65.900,114.100,4548.000,0.000,0.060,0.000,0.050,0.010,0.000,0.121,65.800,0.013
421.768,110.200,62.500,117.500,6128.000,0.000,0.060,0.000,0.050,0.010,0.000,0.142,62.400,0.010
421.840,101.890,60.500,119.500,4528.000,0.000,0.180,0.000,0.050,0.130,-0.000,0.160,60.400,0.040
421.911,93.450,60.030,119.970,5542.000,0.000,0.180,0.000,0.050,0.130,-0.000,0.164,59.930,0.032
421.984,84.970,61.060,118.940,5662.000,0.000,0.970,0.000,0.490,0.480,0.000,0.163,60.960,0.171
422.056,76.900,63.620,116.380,6376.000,0.000,0.970,0.000,0.490,0.480,0.000,0.156,63.520,0.152
422.128,69.870,67.500,112.500,6502.000,0.000,0.970,0.000,0.490,0.480,0.000,0.136,67.400,0.149
422.200,64.190,72.440,107.560,1708.000,0.000,1.230,0.000,0.440,0.790,-0.020,0.110,72.340,0.720
422.272,59.940,78.430,101.570,2926.000,0.000,1.230,0.000,0.440,0.790,-0.020,0.082,78.330,0.420
422.343,57.550,84.930,95.070,1960.000,0.000,0.870,0.000,0.340,0.520,-0.010,0.047,84.830,0.444
422.415,57.050,91.600,88.400,6104.000,0.000,0.870,0.000,0.340,0.520,-0.010,0.010,91.500,0.143
422.486,58.480,98.280,81.720,3922.000,0.000,0.870,0.000,0.340,0.520,-0.010,0.028,98.180,0.222
422.559,61.820,104.620,75.380,5804.000,0.000,0.390,0.000,0.160,0.230,-0.000,0.064,104.520,0.067
422.631,66.730,110.050,69.950,2966.000,0.000,0.390,0.000,0.160,0.230,-0.000,0.095,109.950,0.131
422.703,73.150,114.540,65.460,6258.000,0.000,0.390,0.000,0.160,0.230,-0.000,0.124,114.440,0.062
422.775,80.680,117.790,62.210,4862.000,0.000,-0.020,0.000,0.020,-0.030,0.000,0.146,117.690,-0.004
422.847,88.940,119.620,60.380,5842.000,0.000,-0.020,0.000,0.020,-0.030,0.000,0.159,119.520,-0.003
422.919,97.510,119.930,60.070,4918.000,0.000,0.100,0.000,0.070,0.020,0.000,0.165,119.830,0.020
422.992,106.060,118.700,61.300,6150.000,0.000,0.100,0.000,0.070,0.020,0.000,0.164,118.600,0.016
423.064,113.830,116.060,63.940,5404.000,0.000,0.100,0.000,0.070,0.020,0.000,0.149,115.960,0.019
423.136,120.840,112.000,68.000,2326.000,0.000,0.560,0.000,0.280,0.280,0.000,0.135,111.900,0.241
423.208,126.430,106.860,73.140,4758.000,0.000,0.560,0.000,0.280,0.280,0.000,0.107,106.760,0.118
423.280,130.420,100.870,79.130,4266.000,0.000,0.790,0.000,0.460,0.330,0.010,0.077,100.770,0.185
423.352,132.600,94.320,85.680,3450.000,0.000,0.790,0.000,0.460,0.330,0.010,0.042,94.220,0.229
423.424,132.870,87.550,92.450,4128.000,0.000,0.790,0.000,0.460,0.330,0.010,0.005,87.450,0.191
423.496,131.180,80.820,99.180,3804.000,0.000,0.210,0.000,0.110,0.110,-0.000,0.033,80.720,0.055
423.569,127.710,74.730,105.270,3844.000,0.000,0.210,0.000,0.110,0.110,-0.000,0.066,74.630,0.055
423.641,122.540,69.330,110.670,5902.000,0.000,0.210,0.000,0.110,0.110,-0.000,0.100,69.230,0.036
423.713,115.860,64.930,115.070,6892.000,0.000,0.070,0.000,0.110,-0.030,0.010,0.129,64.830,0.010
423.785,108.320,61.900,118.100,6200.000,0.000,0.070,0.000,0.110,-0.030,0.010,0.145,61.800,0.011
423.857,99.880,60.250,119.750,4790.000,0.000,0.390,0.000,0.190,0.200,-0.000,0.163,60.150,0.081
423.929,91.310,60.140,119.860,6092.000,0.000,0.390,0.000,0.190,0.200,-0.000,0.165,60.040,0.064
424.001,83.030,61.530,118.470,4990.000,0.000,0.390,0.000,0.190,0.200,-0.000,0.159,61.430,0.078
424.073,75.150,64.420,115.580,6626.000,0.000,1.300,0.000,0.640,0.660,-0.000,0.152,64.320,0.196
424.145,68.380,68.590,111.410,6078.000,0.000,1.300,0.000,0.640,0.660,-0.000,0.131,68.490,0.214
424.217,62.920,73.930,106.070,4276.000,0.000,1.150,0.000,0.340,0.800,-0.020,0.105,73.830,0.269
424.289,59.210,79.930,100.070,4630.000,0.000,1.150,0.000,0.340,0.800,-0.020,0.072,79.830,0.248
424.361,57.260,86.520,93.480,4456.000,0.000,1.150,0.000,0.340,0.800,-0.020,0.038,86.420,0.258
424.433,57.230,93.290,86.710,2720.000,0.000,0.490,0.000,0.200,0.290,-0.000,0.001,93.190,0.180
424.505,59.130,99.900,80.100,8260.000,0.000,0.490,0.000,0.200,0.290,-0.000,0.037,99.800,0.059
424.577,62.850,106.000,74.000,4428.000,0.000,0.490,0.000,0.200,0.290,-0.000,0.071,105.900,0.111
424.649,68.210,111.280,68.720,4492.000,0.000,0.140,0.000,0.030,0.110,-0.000,0.103,111.180,0.031
424.721,74.940,115.480,64.520,5016.000,0.000,0.140,0.000,0.030,0.110,-0.000,0.130,115.380,0.028
424.793,82.690,118.380,61.620,6338.000,0.000,-0.040,0.000,0.010,-0.050,0.000,0.150,118.280,-0.006
424.865,91.070,119.840,60.160,7792.000,0.000,-0.040,0.000,0.010,-0.050,0.000,0.161,119.740,-0.005
424.938,99.640,119.780,60.220,4846.000,0.000,-0.040,0.000,0.010,-0.050,0.000,0.164,119.680,-0.008
425.010,107.980,118.190,61.810,6556.000,0.000,0.120,0.000,0.060,0.060,0.000,0.160,118.090,0.018
425.082,115.760,115.130,64.870,5220.000,0.000,0.120,0.000,0.060,0.060,0.000,0.150,115.030,0.023
425.155,122.290,110.880,69.120,4188.000,0.000,0.120,0.000,0.060,0.060,0.000,0.125,110.780,0.029
425.226,127.590,105.430,74.570,8176.000,0.000,0.850,0.000,0.590,0.250,0.020,0.102,105.330,0.104
425.298,131.140,99.270,80.730,4794.000,0.000,0.850,0.000,0.590,0.250,0.020,0.069,99.170,0.177
425.370,132.860,92.540,87.460,5538.000,0.000,0.740,0.000,0.410,0.330,0.000,0.033,92.440,0.134
425.442,132.640,85.870,94.130,1410.000,0.000,0.740,0.000,0.410,0.330,0.000,0.004,85.770,0.525
425.514,130.500,79.310,100.690,6046.000,0.000,0.740,0.000,0.410,0.330,0.000,0.041,79.210,0.122
425.587,126.500,73.220,106.780,4024.000,0.000,0.100,0.000,0.100,-0.000,0.010,0.076,73.120,0.025
425.659,121.010,68.130,111.870,3398.000,0.000,0.100,0.000,0.100,-0.000,0.010,0.106,68.030,0.029
425.731,114.030,64.030,115.970,5574.000,0.000,0.060,0.000,0.070,-0.010,0.000,0.136,63.930,0.011
425.803,106.170,61.330,118.670,7518.000,0.000,0.060,0.000,0.070,-0.010,0.000,0.151,61.230,0.008
425.875,97.740,60.080,119.920,5826.000,0.000,0.060,0.000,0.070,-0.010,0.000,0.163,59.980,0.010
425.947,89.170,60.350,119.650,6246.000,0.000,0.510,0.000,0.150,0.360,-0.010,0.165,60.250,0.082
426.019,80.900,62.140,117.860,4716.000,0.000,0.510,0.000,0.150,0.360,-0.010,0.159,62.040,0.108
426.091,73.350,65.350,114.650,6452.000,0.000,0.510,0.000,0.150,0.360,-0.010,0.146,65.250,0.079
426.163,66.890,69.810,110.190,5614.000,0.000,1.180,0.000,0.450,0.730,-0.010,0.124,69.710,0.210
426.236,61.820,75.380,104.620,4548.000,0.000,1.180,0.000,0.450,0.730,-0.010,0.098,75.280,0.259
426.307,58.510,81.630,98.370,5524.000,0.000,1.070,0.000,0.290,0.780,-0.030,0.065,81.530,0.194
426.379,57.070,88.210,91.790,1880.000,0.000,1.070,0.000,0.290,0.780,-0.030,0.028,88.110,0.569
426.451,57.530,94.970,85.030,4552.000,0.000,1.070,0.000,0.290,0.780,-0.030,0.009,94.870,0.235
426.523,59.940,101.570,78.430,5332.000,0.000,0.400,0.000,0.130,0.280,-0.010,0.046,101.470,0.075
426.596,64.050,107.400,72.600,5030.000,0.000,0.400,0.000,0.130,0.280,-0.010,0.078,107.300,0.080
426.667,69.780,112.440,67.560,4542.000,0.000,-0.050,0.000,0.010,-0.060,0.000,0.112,112.340,-0.011
426.739,76.900,116.380,63.620,2320.000,0.000,-0.050,0.000,0.010,-0.060,0.000,0.137,116.280,-0.022
426.812,84.740,118.890,61.110,5904.000,0.000,-0.050,0.000,0.010,-0.060,0.000,0.151,118.790,-0.008
426.883,93.210,119.970,60.030,6164.000,0.000,0.040,0.000,0.050,-0.010,0.000,0.164,119.870,0.006
426.956,101.890,119.500,60.500,2484.000,0.000,0.040,0.000,0.050,-0.010,0.000,0.166,119.400,0.016
427.028,109.980,117.570,62.430,7238.000,0.000,0.040,0.000,0.050,-0.010,0.000,0.156,117.470,0.006
427.100,117.530,114.160,65.840,1458.000,0.000,0.400,0.000,0.210,0.190,0.000,0.145,114.060,0.274
427.172,123.820,109.560,70.450,4772.000,0.000,0.400,0.000,0.210,0.190,0.000,0.121,109.460,0.084
427.245,128.640,103.950,76.050,4286.000,0.000,0.950,0.000,0.780,0.170,0.030,0.093,103.850,0.222
427.316,131.750,97.640,82.360,2694.000,0.000,0.950,0.000,0.780,0.170,0.030,0.061,97.540,0.353
427.388,132.980,90.940,89.060,3830.000,0.000,0.950,0.000,0.780,0.170,0.030,0.024,90.840,0.248
427.460,132.260,84.100,95.900,2114.000,0.000,0.520,0.000,0.220,0.290,-0.000,0.014,84.000,0.246
427.533,129.680,77.740,102.260,3874.000,0.000,0.520,0.000,0.220,0.290,-0.000,0.049,77.640,0.134
427.605,125.240,71.840,108.160,3572.000,0.000,0.020,0.000,0.030,-0.010,0.000,0.085,71.740,0.006
427.677,119.310,66.940,113.060,4414.000,0.000,0.020,0.000,0.030,-0.010,0.000,0.114,66.840,0.005
427.749,112.150,63.230,116.770,3188.000,0.000,0.020,0.000,0.030,-0.010,0.000,0.138,63.130,0.006
427.821,104.100,60.870,119.130,5040.000,0.000,0.140,0.000,0.040,0.110,-0.000,0.156,60.770,0.028
427.893,95.600,60.000,120.000,5234.000,0.000,0.140,0.000,0.040,0.110,-0.000,0.165,59.900,0.027
427.965,87.060,60.660,119.340,6938.000,0.000,0.140,0.000,0.040,0.110,-0.000,0.164,60.560,0.020
428.037,78.930,62.820,117.180,5568.000,0.000,1.050,0.000,0.520,0.520,0.000,0.157,62.720,0.189
428.109,71.520,66.410,113.590,6718.000,0.000,1.050,0.000,0.520,0.520,0.000,0.143,66.310,0.156
428.182,65.490,71.100,108.900,4718.000,0.000,1.350,0.000,0.450,0.910,-0.020,0.116,71.000,0.286
428.254,60.870,76.800,103.200,2258.000,0.000,1.350,0.000,0.450,0.910,-0.020,0.089,76.700,0.598
428.325,57.970,83.270,96.730,1580.000,0.000,1.350,0.000,0.450,0.910,-0.020,0.056,83.170,0.854
428.397,57.000,89.910,90.090,3290.000,0.000,0.700,0.000,0.350,0.350,-0.000,0.019,89.810,0.213
428.469,57.940,96.640,83.360,2598.000,0.000,0.700,0.000,0.350,0.350,-0.000,0.018,96.540,0.269
428.541,60.770,103.030,76.970,5718.000,0.000,0.700,0.000,0.350,0.350,-0.000,0.054,102.930,0.122
428.613,65.420,108.830,71.170,6348.000,0.000,0.300,0.000,0.070,0.230,-0.010,0.090,108.730,0.047
428.685,71.430,113.530,66.470,4902.000,0.000,0.300,0.000,0.070,0.230,-0.010,0.116,113.430,0.061
428.757,78.710,117.100,62.900,4998.000,0.000,-0.040,0.000,0.020,-0.060,0.000,0.141,117.000,-0.008
428.829,86.940,119.320,60.680,5578.000,0.000,-0.040,0.000,0.020,-0.060,0.000,0.158,119.220,-0.007
428.901,95.360,120.000,60.000,4568.000,0.000,-0.040,0.000,0.020,-0.060,0.000,0.162,119.900,-0.009
428.974,103.870,119.170,60.830,6226.000,0.000,0.090,0.000,0.060,0.030,0.000,0.163,119.070,0.014
429.046,112.040,116.820,63.180,5748.000,0.000,0.090,0.000,0.060,0.030,0.000,0.157,116.720,0.016
429.119,119.220,113.120,66.880,3484.000,0.000,1.070,0.000,0.820,0.250,0.030,0.138,113.020,0.307
429.191,125.170,108.240,71.760,6652.000,0.000,1.070,0.000,0.820,0.250,0.030,0.115,108.140,0.161
429.263,129.630,102.350,77.650,3290.000,0.000,1.070,0.000,0.820,0.250,0.030,0.086,102.250,0.325
429.334,132.230,95.990,84.010,2540.000,0.000,0.720,0.000,0.420,0.300,0.010,0.051,95.890,0.283
