Used Parameters:
Used Foils:,cambered_foils
Waterspeed:,0.0
Frequency:,0.7
Heave Amplitude:,38
Pitch Amplitude:,20
Camber Amplitude,90
Pitch Phase,0
Camber Phase,0
Turn Rate,0
Test Duration,10

Statistical Evaluation:
Time,Heave_pos,Pitch_right,Pitch_left,Power_consumption,Noise,Fx,Fz,Mx,My,Mz,Inflow_velocity,Angle_of_attack,Efficiency
average,94.876,89.847,90.153,5774.271,0.000,0.778,0.000,0.263,0.516,-0.013,0.146,89.747,0.470
max,133.000,109.990,110.000,9840.000,0.000,1.720,0.000,0.770,1.200,0.020,0.237,109.890,15.000
min,57.000,70.000,70.010,92.000,0.000,-0.230,0.000,-0.180,-0.240,-0.050,0.001,69.900,-0.042
std. dev,27.075,14.154,14.154,2128.746,0.000,0.544,0.000,0.215,0.402,0.018,0.071,14.154,1.912

Complete Data:
Time,Heave_pos,Pitch_right,Pitch_left,Power_consumption,Noise,Fx,Fz,Mx,My,Mz,Inflow_velocity,Angle_of_attack,Efficiency
134.150,,,,,,-0.080,0.000,-0.020,-0.060,0.000,,,
134.222,58.940,96.310,83.690,5542.000,0.000,-0.050,0.000,-0.000,-0.050,0.000,,96.210,-0.009
134.294,64.370,101.840,78.160,4784.000,0.000,-0.050,0.000,-0.000,-0.050,0.000,0.104,101.740,-0.010
134.366,72.900,106.270,73.730,7518.000,0.000,-0.050,0.000,-0.000,-0.050,0.000,0.165,106.170,-0.007
134.438,83.620,109.080,70.920,6960.000,0.000,-0.030,0.000,-0.000,-0.030,0.000,0.206,108.980,-0.004
134.510,95.480,110.000,70.000,8376.000,0.000,-0.030,0.000,-0.000,-0.030,0.000,0.228,109.900,-0.004
134.583,107.290,108.930,71.070,5826.000,0.000,-0.010,0.000,0.000,-0.020,0.000,0.225,108.830,-0.002
134.656,118.010,105.920,74.080,6924.000,0.000,-0.010,0.000,0.000,-0.020,0.000,0.205,105.820,-0.001
134.727,126.190,101.430,78.570,6756.000,0.000,-0.010,0.000,0.000,-0.020,0.000,0.159,101.330,-0.001
134.799,131.400,95.750,84.250,6946.000,0.000,0.900,0.000,0.310,0.590,-0.010,0.101,95.650,0.130
134.871,132.980,89.410,90.590,1566.000,0.000,0.900,0.000,0.310,0.590,-0.010,0.030,89.310,0.575
134.943,130.800,83.300,96.700,7626.000,0.000,0.900,0.000,0.310,0.590,-0.010,0.042,83.200,0.118
135.015,125.060,77.760,102.240,4082.000,0.000,0.790,0.000,0.340,0.460,-0.010,0.110,77.660,0.194
135.087,116.180,73.400,106.600,5696.000,0.000,0.790,0.000,0.340,0.460,-0.010,0.171,73.300,0.139
135.160,105.300,70.750,109.250,6298.000,0.000,0.080,0.000,0.030,0.050,-0.000,0.209,70.650,0.013
135.231,93.570,70.010,109.990,6432.000,0.000,0.080,0.000,0.030,0.050,-0.000,0.228,69.910,0.012
135.303,81.660,71.270,108.730,6130.000,0.000,0.080,0.000,0.030,0.050,-0.000,0.230,71.170,0.013
135.375,71.240,74.390,105.610,6576.000,0.000,0.720,0.000,0.110,0.610,-0.030,0.201,74.290,0.109
135.447,63.280,78.990,101.010,7500.000,0.000,0.720,0.000,0.110,0.610,-0.030,0.153,78.890,0.096
135.519,58.300,84.820,95.180,8242.000,0.000,1.720,0.000,0.520,1.200,-0.030,0.097,84.720,0.209
135.591,57.060,91.090,88.910,1010.000,0.000,1.720,0.000,0.520,1.200,-0.030,0.024,90.990,1.703
135.662,59.530,97.180,82.820,5904.000,0.000,1.720,0.000,0.520,1.200,-0.030,0.048,97.080,0.291
135.734,65.540,102.630,77.370,6026.000,0.000,1.210,0.000,0.590,0.620,-0.000,0.116,102.530,0.201
135.807,74.620,106.880,73.120,7818.000,0.000,1.210,0.000,0.590,0.620,-0.000,0.175,106.780,0.155
135.879,85.460,109.360,70.640,7714.000,0.000,1.210,0.000,0.590,0.620,-0.000,0.209,109.260,0.157
135.951,97.390,109.960,70.040,3250.000,0.000,0.290,0.000,0.310,-0.020,0.020,0.230,109.860,0.089
136.023,109.230,108.540,71.460,5082.000,0.000,0.290,0.000,0.310,-0.020,0.020,0.227,108.440,0.057
136.095,119.370,105.350,74.650,7108.000,0.000,0.310,0.000,-0.180,0.490,-0.030,0.195,105.250,0.044
136.167,127.330,100.510,79.490,7418.000,0.000,0.310,0.000,-0.180,0.490,-0.030,0.154,100.410,0.042
136.239,131.940,94.690,85.310,7314.000,0.000,0.310,0.000,-0.180,0.490,-0.030,0.089,94.590,0.042
136.311,132.880,88.410,91.590,1166.000,0.000,1.370,0.000,0.770,0.600,0.010,0.018,88.310,1.175
136.383,130.050,82.280,97.720,6574.000,0.000,1.370,0.000,0.770,0.600,0.010,0.055,82.180,0.208
136.455,123.740,76.920,103.080,4670.000,0.000,0.960,0.000,0.560,0.400,0.010,0.121,76.820,0.206
136.528,114.430,72.810,107.190,4952.000,0.000,0.960,0.000,0.560,0.400,0.010,0.177,72.710,0.194
136.600,103.450,70.500,109.500,7422.000,0.000,0.960,0.000,0.560,0.400,0.010,0.212,70.400,0.129
136.672,91.500,70.090,109.910,2638.000,0.000,0.070,0.000,0.020,0.050,-0.000,0.233,69.990,0.027
136.744,79.730,71.690,108.310,7426.000,0.000,0.070,0.000,0.020,0.050,-0.000,0.226,71.590,0.009
136.816,69.780,75.040,104.960,5568.000,0.000,0.070,0.000,0.020,0.050,-0.000,0.191,74.940,0.013
136.888,62.180,79.920,100.080,6944.000,0.000,1.320,0.000,0.290,1.020,-0.040,0.147,79.820,0.190
136.959,57.810,85.880,94.120,5020.000,0.000,1.320,0.000,0.290,1.020,-0.040,0.085,85.780,0.263
137.031,57.210,92.090,87.910,948.000,0.000,1.400,0.000,0.300,1.110,-0.040,0.012,91.990,1.477
137.103,60.330,98.180,81.820,7218.000,0.000,1.400,0.000,0.300,1.110,-0.040,0.060,98.080,0.194
137.176,66.890,103.460,76.540,4912.000,0.000,1.400,0.000,0.300,1.110,-0.040,0.126,103.360,0.285
137.248,76.260,107.400,72.600,7038.000,0.000,0.750,0.000,0.350,0.410,-0.000,0.179,107.300,0.107
137.319,87.480,109.600,70.400,8746.000,0.000,0.750,0.000,0.350,0.410,-0.000,0.220,109.500,0.086
137.392,99.450,109.860,70.140,7874.000,0.000,-0.230,0.000,-0.030,-0.200,0.010,0.229,109.760,-0.029
137.464,111.140,108.110,71.890,7002.000,0.000,-0.230,0.000,-0.030,-0.200,0.010,0.224,108.010,-0.033
137.536,120.930,104.620,75.380,5462.000,0.000,-0.230,0.000,-0.030,-0.200,0.010,0.188,104.520,-0.042
137.608,128.370,99.570,80.430,6130.000,0.000,1.320,0.000,0.400,0.930,-0.030,0.144,99.470,0.215
137.680,132.370,93.620,86.380,5718.000,0.000,1.320,0.000,0.400,0.930,-0.030,0.077,93.520,0.231
137.751,132.680,87.410,92.590,92.000,0.000,1.320,0.000,0.400,0.930,-0.030,0.006,87.310,14.348
137.824,129.200,81.280,98.720,3824.000,0.000,1.040,0.000,0.480,0.560,-0.000,0.066,81.180,0.272
137.897,122.340,76.110,103.890,5668.000,0.000,1.040,0.000,0.480,0.560,-0.000,0.131,76.010,0.183
137.969,112.760,72.320,107.680,7130.000,0.000,0.440,0.000,0.290,0.150,0.010,0.185,72.220,0.062
138.041,101.420,70.290,109.710,6940.000,0.000,0.440,0.000,0.290,0.150,0.010,0.219,70.190,0.063
138.112,89.270,70.230,109.770,5872.000,0.000,0.440,0.000,0.290,0.150,0.010,0.237,70.130,0.075
138.184,78.000,72.110,107.890,6174.000,0.000,0.580,0.000,0.040,0.540,-0.030,0.217,72.010,0.094
138.257,68.270,75.790,104.210,7180.000,0.000,0.580,0.000,0.040,0.540,-0.030,0.186,75.690,0.081
138.328,61.110,80.950,99.050,7088.000,0.000,0.580,0.000,0.040,0.540,-0.030,0.140,80.850,0.082
138.400,57.440,86.960,93.040,5780.000,0.000,1.390,0.000,0.240,1.150,-0.050,0.071,86.860,0.240
138.471,57.480,93.180,86.820,528.000,0.000,1.390,0.000,0.240,1.150,-0.050,0.001,93.080,2.633
138.544,61.230,99.170,80.830,2802.000,0.000,1.140,0.000,0.440,0.690,-0.010,0.072,99.070,0.407
138.617,68.450,104.310,75.690,8414.000,0.000,1.140,0.000,0.440,0.690,-0.010,0.137,104.210,0.135
138.689,78.090,107.910,72.090,6518.000,0.000,1.140,0.000,0.440,0.690,-0.010,0.186,107.810,0.175
138.761,89.530,109.790,70.210,8454.000,0.000,0.420,0.000,0.330,0.100,0.010,0.221,109.690,0.050
138.834,101.670,109.690,70.310,4722.000,0.000,0.420,0.000,0.330,0.100,0.010,0.231,109.590,0.089
138.905,112.840,107.660,72.340,7972.000,0.000,0.050,0.000,-0.140,0.190,-0.020,0.216,107.560,0.006
138.977,122.520,103.790,76.210,7600.000,0.000,0.050,0.000,-0.140,0.190,-0.020,0.186,103.690,0.007
139.049,129.310,98.600,81.400,4526.000,0.000,0.050,0.000,-0.140,0.190,-0.020,0.132,98.500,0.011
139.121,132.690,92.540,87.460,6820.000,0.000,1.190,0.000,0.570,0.620,-0.000,0.065,92.440,0.174
139.193,132.320,86.240,93.760,1478.000,0.000,1.190,0.000,0.570,0.620,-0.000,0.007,86.140,0.805
139.265,128.240,80.310,99.690,6094.000,0.000,1.190,0.000,0.570,0.620,-0.000,0.079,80.210,0.195
139.338,120.860,75.340,104.660,8488.000,0.000,1.070,0.000,0.540,0.530,0.000,0.141,75.240,0.126
139.410,110.900,71.830,108.170,5270.000,0.000,1.070,0.000,0.540,0.530,0.000,0.192,71.730,0.203
139.481,99.190,70.120,109.880,5524.000,0.000,0.060,0.000,0.040,0.020,0.000,0.227,70.020,0.011
139.554,87.220,70.420,109.580,6620.000,0.000,0.060,0.000,0.040,0.020,0.000,0.229,70.320,0.009
139.626,76.030,72.670,107.330,5868.000,0.000,0.060,0.000,0.040,0.020,0.000,0.216,72.570,0.010
139.700,66.720,76.640,103.360,7590.000,0.000,1.340,0.000,0.330,1.010,-0.030,0.176,76.540,0.177
139.769,60.220,81.940,98.060,4970.000,0.000,1.340,0.000,0.330,1.010,-0.030,0.129,81.840,0.270
139.842,57.200,87.960,92.040,5108.000,0.000,1.530,0.000,0.370,1.170,-0.040,0.058,87.860,0.300
139.913,57.900,94.340,85.660,102.000,0.000,1.530,0.000,0.370,1.170,-0.040,0.014,94.240,15.000
139.986,62.320,100.200,79.800,5610.000,0.000,1.530,0.000,0.370,1.170,-0.040,0.084,100.100,0.273
140.058,69.850,104.990,75.010,6468.000,0.000,0.880,0.000,0.320,0.570,-0.010,0.146,104.890,0.136
140.130,80.130,108.400,71.600,6858.000,0.000,0.880,0.000,0.320,0.570,-0.010,0.199,108.300,0.128
140.202,91.760,109.930,70.070,6738.000,0.000,0.880,0.000,0.320,0.570,-0.010,0.224,109.830,0.131
140.274,103.550,109.490,70.510,4712.000,0.000,-0.200,0.000,0.040,-0.240,0.010,0.225,109.390,-0.042
140.347,114.790,107.070,72.930,6442.000,0.000,-0.200,0.000,0.040,-0.240,0.010,0.214,106.970,-0.031
140.419,123.910,102.980,77.020,6872.000,0.000,0.770,0.000,0.100,0.670,-0.030,0.177,102.880,0.112
140.490,130.150,97.600,82.400,4922.000,0.000,0.770,0.000,0.100,0.670,-0.030,0.122,97.500,0.156
140.562,132.900,91.460,88.540,6032.000,0.000,0.770,0.000,0.100,0.670,-0.030,0.053,91.360,0.128
140.634,131.840,85.090,94.910,960.000,0.000,1.350,0.000,0.550,0.800,-0.010,0.020,84.990,1.406
140.707,127.100,79.290,100.710,3648.000,0.000,1.350,0.000,0.550,0.800,-0.010,0.090,79.190,0.370
140.779,119.170,74.570,105.430,9840.000,0.000,0.680,0.000,0.390,0.290,0.000,0.153,74.470,0.069
140.852,108.830,71.370,108.630,3558.000,0.000,0.680,0.000,0.390,0.290,0.000,0.197,71.270,0.191
140.924,97.120,70.030,109.970,7232.000,0.000,0.680,0.000,0.390,0.290,0.000,0.227,69.930,0.094
140.995,85.200,70.680,109.320,7282.000,0.000,0.220,0.000,0.030,0.190,-0.010,0.230,70.580,0.030
141.068,74.260,73.240,106.760,7862.000,0.000,0.220,0.000,0.030,0.190,-0.010,0.211,73.140,0.028
141.140,65.270,77.540,102.460,6786.000,0.000,0.220,0.000,0.030,0.190,-0.010,0.173,77.440,0.032
141.211,59.440,82.950,97.050,4814.000,0.000,1.600,0.000,0.410,1.190,-0.040,0.113,82.850,0.332
141.283,57.040,89.130,90.870,6584.000,0.000,1.600,0.000,0.410,1.190,-0.040,0.046,89.030,0.243
141.355,58.410,95.400,84.600,1206.000,0.000,1.310,0.000,0.350,0.960,-0.030,0.026,95.300,1.086
141.427,63.420,101.130,78.870,3522.000,0.000,1.310,0.000,0.350,0.960,-0.030,0.096,101.030,0.372
141.499,71.580,105.750,74.250,7606.000,0.000,1.310,0.000,0.350,0.960,-0.030,0.158,105.650,0.172
141.572,82.060,108.800,71.200,3546.000,0.000,0.600,0.000,0.280,0.320,-0.000,0.201,108.700,0.169
141.643,94.000,109.990,70.010,6812.000,0.000,0.600,0.000,0.280,0.320,-0.000,0.231,109.890,0.088
141.716,105.720,109.190,70.810,7708.000,0.000,0.600,0.000,0.280,0.320,-0.000,0.224,109.090,0.078
141.788,116.670,106.430,73.570,8018.000,0.000,-0.190,0.000,-0.020,-0.170,0.010,0.210,106.330,-0.024
141.861,125.320,102.060,77.940,9130.000,0.000,-0.190,0.000,-0.020,-0.170,0.010,0.166,101.960,-0.021
141.932,130.940,96.490,83.510,4536.000,0.000,1.010,0.000,0.250,0.760,-0.030,0.109,96.390,0.223
142.004,133.000,90.280,89.720,6220.000,0.000,1.010,0.000,0.250,0.760,-0.030,0.040,90.180,0.162
142.076,131.270,84.040,95.960,646.000,0.000,1.010,0.000,0.250,0.760,-0.030,0.034,83.940,1.563
142.149,125.940,78.390,101.610,4486.000,0.000,1.300,0.000,0.590,0.710,-0.010,0.101,78.290,0.290
142.220,117.530,73.890,106.110,8180.000,0.000,1.300,0.000,0.590,0.710,-0.010,0.163,73.790,0.159
142.293,106.720,70.980,109.020,2858.000,0.000,0.120,0.000,0.060,0.060,-0.000,0.208,70.880,0.042
142.364,95.050,70.000,110.000,7310.000,0.000,0.120,0.000,0.060,0.060,-0.000,0.226,69.900,0.016
142.436,83.210,70.990,109.010,7690.000,0.000,0.120,0.000,0.060,0.060,-0.000,0.228,70.890,0.016
142.508,72.410,73.920,106.080,8110.000,0.000,0.740,0.000,0.170,0.570,-0.020,0.209,73.820,0.091
142.580,64.120,78.350,101.650,7100.000,0.000,0.740,0.000,0.170,0.570,-0.020,0.160,78.250,0.104
142.652,58.710,84.070,95.930,7022.000,0.000,0.740,0.000,0.170,0.570,-0.020,0.105,83.970,0.105
142.724,57.000,90.310,89.690,4450.000,0.000,1.460,0.000,0.260,1.200,-0.050,0.033,90.210,0.328
142.796,59.080,96.530,83.470,2874.000,0.000,1.460,0.000,0.260,1.200,-0.050,0.040,96.430,0.508
142.868,64.630,102.020,77.980,5544.000,0.000,0.990,0.000,0.280,0.710,-0.020,0.107,101.920,0.179
142.941,73.380,106.450,73.550,5794.000,0.000,0.990,0.000,0.280,0.710,-0.020,0.168,106.350,0.171
143.013,84.190,109.170,70.830,6242.000,0.000,0.990,0.000,0.280,0.710,-0.020,0.209,109.070,0.159
143.085,95.910,109.990,70.010,7472.000,0.000,0.040,0.000,0.140,-0.100,0.010,0.226,109.890,0.005
