Used Parameters:
Used Foils:,cambered_foils
Waterspeed:,0.0
Frequency:,0.6
Heave Amplitude:,38
Pitch Amplitude:,35
Camber Amplitude,90
Pitch Phase,0
Camber Phase,0
Turn Rate,0
Test Duration,10

Statistical Evaluation:
Time,Heave_pos,Pitch_right,Pitch_left,Power_consumption,Noise,Fx,Fz,Mx,My,Mz,Inflow_velocity,Angle_of_attack,Efficiency
average,93.198,91.872,88.128,6356.038,0.000,0.651,0.000,0.297,0.354,-0.003,0.126,91.772,0.178
max,133.000,125.000,124.960,10050.000,0.000,1.540,0.000,1.170,1.000,0.040,0.200,124.900,3.818
min,57.030,55.040,55.000,330.000,0.000,-0.360,0.000,-0.070,-0.340,-0.040,0.001,54.940,-0.066
std. dev,26.940,24.797,24.797,1984.100,0.000,0.542,0.000,0.293,0.377,0.021,0.061,24.797,0.426

Complete Data:
Time,Heave_pos,Pitch_right,Pitch_left,Power_consumption,Noise,Fx,Fz,Mx,My,Mz,Inflow_velocity,Angle_of_attack,Efficiency
303.325,58.430,99.510,80.490,2268.000,0.000,-0.010,0.000,0.010,-0.020,0.000,0.027,99.410,-0.004
303.397,62.540,108.190,71.810,5322.000,0.000,-0.000,0.000,0.000,-0.000,0.000,0.078,108.090,-0.000
303.469,68.920,115.450,64.550,7120.000,0.000,-0.000,0.000,0.000,-0.000,0.000,0.124,115.350,-0.000
303.541,77.410,121.020,58.980,4466.000,0.000,-0.000,0.000,0.000,-0.000,0.000,0.164,120.920,-0.000
303.613,87.080,124.230,55.770,7166.000,0.000,0.010,0.000,0.010,0.010,0.000,0.187,124.130,0.001
303.685,97.200,124.940,55.060,6186.000,0.000,0.010,0.000,0.010,0.010,0.000,0.195,124.840,0.002
303.758,107.420,123.080,56.920,5832.000,0.000,0.010,0.000,0.010,0.010,0.000,0.194,122.980,0.002
303.830,116.600,118.800,61.200,7544.000,0.000,0.340,0.000,0.080,0.260,-0.010,0.178,118.700,0.045
303.902,124.190,112.410,67.590,2124.000,0.000,0.340,0.000,0.080,0.260,-0.010,0.147,112.310,0.160
303.974,129.640,104.380,75.620,5872.000,0.000,1.120,0.000,0.680,0.440,0.010,0.105,104.280,0.191
304.045,132.560,95.300,84.700,2298.000,0.000,1.120,0.000,0.680,0.440,0.010,0.057,95.200,0.487
304.117,132.730,85.830,94.170,3942.000,0.000,1.120,0.000,0.680,0.440,0.010,0.003,85.730,0.284
304.190,130.130,76.670,103.330,8376.000,0.000,0.780,0.000,0.510,0.270,0.010,0.050,76.570,0.093
304.262,124.970,68.480,111.520,4542.000,0.000,0.780,0.000,0.510,0.270,0.010,0.099,68.380,0.172
304.334,117.490,61.790,118.210,6882.000,0.000,-0.020,0.000,0.010,-0.030,0.000,0.144,61.690,-0.003
304.406,108.590,57.310,122.690,8714.000,0.000,-0.020,0.000,0.010,-0.030,0.000,0.171,57.210,-0.002
304.478,98.580,55.160,124.840,9034.000,0.000,-0.020,0.000,0.010,-0.030,0.000,0.194,55.060,-0.002
304.550,88.160,55.570,124.430,9192.000,0.000,0.390,0.000,0.140,0.250,-0.010,0.200,55.470,0.042
304.622,78.520,58.460,121.540,7770.000,0.000,0.390,0.000,0.140,0.250,-0.010,0.186,58.360,0.050
304.694,69.830,63.780,116.220,7750.000,0.000,0.390,0.000,0.140,0.250,-0.010,0.167,63.680,0.050
304.766,63.120,70.950,109.050,5750.000,0.000,1.230,0.000,0.490,0.740,-0.010,0.130,70.850,0.214
304.838,58.790,79.390,100.610,5206.000,0.000,1.230,0.000,0.490,0.740,-0.010,0.084,79.290,0.236
304.909,57.030,88.720,91.280,5470.000,0.000,1.260,0.000,0.260,1.000,-0.040,0.034,88.620,0.230
304.981,58.080,98.280,81.720,330.000,0.000,1.260,0.000,0.260,1.000,-0.040,0.020,98.180,3.818
305.054,61.840,107.090,72.910,6004.000,0.000,1.260,0.000,0.260,1.000,-0.040,0.072,106.990,0.210
305.126,67.930,114.560,65.440,6108.000,0.000,0.720,0.000,0.110,0.600,-0.030,0.118,114.460,0.118
305.198,76.070,120.350,59.650,6348.000,0.000,0.720,0.000,0.110,0.600,-0.030,0.156,120.250,0.113
305.270,85.730,123.940,56.060,8222.000,0.000,-0.350,0.000,-0.010,-0.340,0.020,0.188,123.840,-0.043
305.342,95.810,124.990,55.010,6072.000,0.000,-0.350,0.000,-0.010,-0.340,0.020,0.194,124.890,-0.058
305.414,105.970,123.510,56.490,6410.000,0.000,-0.350,0.000,-0.010,-0.340,0.020,0.195,123.410,-0.055
305.486,115.440,119.500,60.500,6518.000,0.000,0.370,0.000,0.060,0.310,-0.010,0.182,119.400,0.057
305.559,123.280,113.380,66.620,2844.000,0.000,0.370,0.000,0.060,0.310,-0.010,0.150,113.280,0.130
305.631,129.050,105.540,74.460,9230.000,0.000,0.370,0.000,0.060,0.310,-0.010,0.111,105.440,0.040
305.703,132.330,96.560,83.440,1608.000,0.000,1.540,0.000,1.170,0.370,0.040,0.064,96.460,0.958
305.775,132.870,87.100,92.900,5918.000,0.000,1.540,0.000,1.170,0.370,0.040,0.010,87.000,0.260
305.847,130.640,77.850,102.150,5080.000,0.000,0.800,0.000,0.550,0.250,0.020,0.043,77.750,0.157
305.919,125.710,69.390,110.610,3886.000,0.000,0.800,0.000,0.550,0.250,0.020,0.095,69.290,0.206
305.991,118.590,62.560,117.440,7700.000,0.000,0.800,0.000,0.550,0.250,0.020,0.137,62.460,0.104
306.064,109.740,57.740,122.260,6488.000,0.000,0.050,0.000,0.070,-0.020,0.000,0.169,57.640,0.008
306.135,99.810,55.280,124.720,8334.000,0.000,0.050,0.000,0.070,-0.020,0.000,0.193,55.180,0.006
306.207,89.530,55.360,124.640,9656.000,0.000,0.260,0.000,0.060,0.210,-0.010,0.198,55.260,0.027
306.280,79.650,57.980,122.020,9614.000,0.000,0.260,0.000,0.060,0.210,-0.010,0.189,57.880,0.027
306.351,70.890,62.950,117.050,7400.000,0.000,0.260,0.000,0.060,0.210,-0.010,0.169,62.850,0.035
306.424,63.810,70.000,110.000,5904.000,0.000,1.110,0.000,0.420,0.680,-0.010,0.136,69.900,0.188
306.495,59.180,78.310,101.690,4968.000,0.000,1.110,0.000,0.420,0.680,-0.010,0.089,78.210,0.223
306.567,57.090,87.580,92.420,5646.000,0.000,1.110,0.000,0.420,0.680,-0.010,0.041,87.480,0.197
306.639,57.780,97.030,82.970,5830.000,0.000,1.140,0.000,0.210,0.930,-0.040,0.013,96.930,0.196
306.711,61.190,105.970,74.030,7756.000,0.000,1.140,0.000,0.210,0.930,-0.040,0.065,105.870,0.147
306.784,67.070,113.730,66.270,4010.000,0.000,0.520,0.000,0.080,0.440,-0.020,0.113,113.630,0.130
306.856,75.000,119.760,60.240,6150.000,0.000,0.520,0.000,0.080,0.440,-0.020,0.153,119.660,0.085
306.928,84.400,123.610,56.390,7176.000,0.000,0.520,0.000,0.080,0.440,-0.020,0.182,123.510,0.072
307.000,94.570,125.000,55.000,8546.000,0.000,-0.360,0.000,-0.060,-0.300,0.010,0.195,124.900,-0.042
307.072,104.770,123.820,56.180,7284.000,0.000,-0.360,0.000,-0.060,-0.300,0.010,0.195,123.720,-0.049
307.144,114.380,120.100,59.900,5456.000,0.000,-0.360,0.000,-0.060,-0.300,0.010,0.186,120.000,-0.066
307.217,122.340,114.310,65.690,6262.000,0.000,1.040,0.000,0.580,0.450,0.010,0.153,114.210,0.166
307.289,128.480,106.550,73.450,3866.000,0.000,1.040,0.000,0.580,0.450,0.010,0.119,106.450,0.269
307.360,132.070,97.680,82.320,3952.000,0.000,1.130,0.000,0.790,0.350,0.020,0.070,97.580,0.286
307.432,132.950,88.240,91.760,7526.000,0.000,1.130,0.000,0.790,0.350,0.020,0.017,88.140,0.150
307.505,131.050,78.930,101.070,6790.000,0.000,1.130,0.000,0.790,0.350,0.020,0.036,78.830,0.166
307.577,126.430,70.330,109.670,6006.000,0.000,0.720,0.000,0.590,0.130,0.020,0.089,70.230,0.120
307.650,119.660,63.370,116.630,4650.000,0.000,0.720,0.000,0.590,0.130,0.020,0.129,63.270,0.155
307.722,110.880,58.200,121.800,6114.000,0.000,0.040,0.000,0.060,-0.020,0.000,0.169,58.100,0.007
307.794,101.040,55.440,124.560,6904.000,0.000,0.040,0.000,0.060,-0.020,0.000,0.189,55.340,0.006
307.866,90.900,55.200,124.800,8730.000,0.000,0.040,0.000,0.060,-0.020,0.000,0.194,55.100,0.005
307.937,80.790,57.540,122.460,8124.000,0.000,0.310,0.000,0.090,0.220,-0.010,0.199,57.440,0.038
308.009,71.860,62.240,117.760,4990.000,0.000,0.310,0.000,0.090,0.220,-0.010,0.171,62.140,0.062
308.081,64.540,69.070,110.930,4332.000,0.000,0.310,0.000,0.090,0.220,-0.010,0.141,68.970,0.072
308.153,59.620,77.240,102.760,7864.000,0.000,1.320,0.000,0.460,0.870,-0.020,0.095,77.140,0.168
308.225,57.200,86.440,93.560,3962.000,0.000,1.320,0.000,0.460,0.870,-0.020,0.047,86.340,0.333
308.297,57.570,96.040,83.960,4506.000,0.000,1.170,0.000,0.220,0.950,-0.040,0.007,95.940,0.260
308.369,60.640,104.940,75.060,9142.000,0.000,1.170,0.000,0.220,0.950,-0.040,0.059,104.840,0.128
308.442,66.240,112.880,67.120,6622.000,0.000,1.170,0.000,0.220,0.950,-0.040,0.108,112.780,0.177
308.514,74.080,119.220,60.780,6806.000,0.000,0.350,0.000,0.090,0.260,-0.010,0.151,119.120,0.051
308.586,83.210,123.270,56.730,5698.000,0.000,0.350,0.000,0.090,0.260,-0.010,0.176,123.170,0.061
308.658,93.330,124.970,55.030,8670.000,0.000,-0.240,0.000,0.000,-0.250,0.010,0.196,124.870,-0.028
308.730,103.710,124.070,55.930,8714.000,0.000,-0.240,0.000,0.000,-0.250,0.010,0.198,123.970,-0.028
308.802,113.180,120.730,59.270,6678.000,0.000,-0.240,0.000,0.000,-0.250,0.010,0.182,120.630,-0.036
308.875,121.560,115.030,64.970,6452.000,0.000,0.860,0.000,0.350,0.510,-0.010,0.161,114.930,0.133
308.947,127.880,107.550,72.450,3392.000,0.000,0.860,0.000,0.350,0.510,-0.010,0.121,107.450,0.254
309.019,131.780,98.790,81.210,4146.000,0.000,0.860,0.000,0.350,0.510,-0.010,0.076,98.690,0.207
309.091,132.990,89.380,90.620,8062.000,0.000,1.340,0.000,0.930,0.410,0.030,0.023,89.280,0.166
309.163,131.380,79.900,100.100,694.000,0.000,1.340,0.000,0.930,0.410,0.030,0.031,79.800,1.931
309.236,127.110,71.280,108.720,6708.000,0.000,1.000,0.000,0.890,0.120,0.040,0.081,71.180,0.149
309.307,120.490,64.040,115.960,5204.000,0.000,1.000,0.000,0.890,0.120,0.040,0.128,63.940,0.192
309.380,112.000,58.700,121.300,7376.000,0.000,1.000,0.000,0.890,0.120,0.040,0.163,58.600,0.136
309.452,102.260,55.640,124.360,9070.000,0.000,0.070,0.000,0.080,-0.010,0.000,0.188,55.540,0.008
309.523,91.990,55.110,124.890,8054.000,0.000,0.070,0.000,0.080,-0.010,0.000,0.200,55.010,0.009
309.595,81.950,57.130,122.870,8592.000,0.000,0.720,0.000,0.350,0.370,-0.000,0.194,57.030,0.084
309.668,72.740,61.630,118.370,10050.000,0.000,0.720,0.000,0.350,0.370,-0.000,0.175,61.530,0.072
309.740,65.390,68.070,111.930,7212.000,0.000,0.720,0.000,0.350,0.370,-0.000,0.142,67.970,0.100
309.812,60.090,76.180,103.820,7956.000,0.000,1.220,0.000,0.240,0.970,-0.040,0.102,76.080,0.153
309.884,57.320,85.440,94.560,2870.000,0.000,1.220,0.000,0.240,0.970,-0.040,0.054,85.340,0.425
309.955,57.360,94.780,85.220,6920.000,0.000,1.220,0.000,0.240,0.970,-0.040,0.001,94.680,0.176
310.027,60.130,103.900,76.100,6678.000,0.000,1.040,0.000,0.140,0.900,-0.040,0.053,103.800,0.156
310.099,65.540,112.110,67.890,6492.000,0.000,1.040,0.000,0.140,0.900,-0.040,0.104,112.010,0.160
310.172,73.050,118.570,61.430,7608.000,0.000,0.310,0.000,0.120,0.190,-0.000,0.144,118.470,0.041
310.244,82.040,122.900,57.100,3732.000,0.000,0.310,0.000,0.120,0.190,-0.000,0.173,122.800,0.083
310.316,92.230,124.910,55.090,8530.000,0.000,0.310,0.000,0.120,0.190,-0.000,0.196,124.810,0.036
310.389,102.500,124.310,55.690,8746.000,0.000,-0.230,0.000,-0.070,-0.170,0.010,0.196,124.210,-0.026
310.460,112.080,121.260,58.740,5794.000,0.000,-0.230,0.000,-0.070,-0.170,0.010,0.185,121.160,-0.040
310.535,120.660,115.810,64.190,7452.000,0.000,1.180,0.000,0.680,0.500,0.010,0.161,115.710,0.158
310.605,127.310,108.420,71.580,2084.000,0.000,1.180,0.000,0.680,0.500,0.010,0.130,108.320,0.566
310.677,131.450,99.890,80.110,6610.000,0.000,1.180,0.000,0.680,0.500,0.010,0.080,99.790,0.179
310.749,133.000,90.530,89.470,2110.000,0.000,1.100,0.000,0.660,0.440,0.010,0.030,90.430,0.521
310.821,131.720,81.000,99.000,3466.000,0.000,1.100,0.000,0.660,0.440,0.010,0.025,80.900,0.317
310.894,127.830,72.370,107.630,8648.000,0.000,1.100,0.000,0.660,0.440,0.010,0.074,72.270,0.127
310.966,121.390,64.820,115.180,4608.000,0.000,0.500,0.000,0.430,0.070,0.020,0.124,64.720,0.109
311.038,113.100,59.220,120.780,7284.000,0.000,0.500,0.000,0.430,0.070,0.020,0.159,59.120,0.069
311.110,103.480,55.880,124.120,8824.000,0.000,0.050,0.000,0.020,0.030,-0.000,0.186,55.780,0.006
311.182,93.230,55.040,124.960,8798.000,0.000,0.050,0.000,0.020,0.030,-0.000,0.199,54.940,0.006
311.254,82.990,56.800,123.200,9002.000,0.000,0.050,0.000,0.020,0.030,-0.000,0.197,56.700,0.006
311.326,73.760,60.980,119.020,7826.000,0.000,0.820,0.000,0.330,0.490,-0.010,0.177,60.880,0.105
311.398,66.180,67.190,112.810,5676.000,0.000,0.820,0.000,0.330,0.490,-0.010,0.146,67.090,0.144
311.470,60.540,75.260,104.740,6554.000,0.000,0.820,0.000,0.330,0.490,-0.010,0.109,75.160,0.125
311.542,57.510,84.310,95.690,6184.000,0.000,1.390,0.000,0.400,0.990,-0.030,0.059,84.210,0.225
311.613,57.210,93.640,86.360,5298.000,0.000,1.390,0.000,0.400,0.990,-0.030,0.006,93.540,0.262
311.686,59.700,102.970,77.030,6396.000,0.000,1.080,0.000,0.260,0.820,-0.030,0.048,102.870,0.169
311.758,64.770,111.210,68.790,5442.000,0.000,1.080,0.000,0.260,0.820,-0.030,0.098,111.110,0.198
311.830,71.940,117.820,62.180,6712.000,0.000,1.080,0.000,0.260,0.820,-0.030,0.137,117.720,0.161
311.902,81.010,122.540,57.460,5624.000,0.000,0.130,0.000,0.150,-0.020,0.010,0.175,122.440,0.023
311.974,91.000,124.810,55.190,8726.000,0.000,0.130,0.000,0.150,-0.020,0.010,0.193,124.710,0.015
312.047,101.130,124.540,55.460,8018.000,0.000,-0.010,0.000,-0.020,0.010,-0.000,0.194,124.440,-0.001
312.118,111.090,121.710,58.290,7010.000,0.000,-0.010,0.000,-0.020,0.010,-0.000,0.192,121.610,-0.001
312.191,119.840,116.490,63.510,6508.000,0.000,-0.010,0.000,-0.020,0.010,-0.000,0.168,116.390,-0.002
