Used Parameters:
Used Foils:,stiff_foils
Waterspeed:,0.0
Frequency:,0.6
Heave Amplitude:,40
Pitch Amplitude:,20
Camber Amplitude,90
Pitch Phase,0
Camber Phase,0
Turn Rate,0
Test Duration, 10

Statistical Evaluation:
Time,Heave_pos,Pitch_right,Pitch_left,Power_consumption,Noise,Fx,Fz,Mx,My,Mz,Inflow_velocity,Angle_of_attack,Efficiency
average,92.155,89.850,90.150,4719.223,0.000,0.358,32.892,5.320,-0.130,0.018,0.132,89.750,0.139
max,135.000,110.000,109.990,7982.000,0.000,1.120,38.510,5.700,0.160,0.060,0.213,109.900,1.571
min,55.030,70.010,70.000,522.000,0.000,-0.180,28.930,4.690,-0.350,-0.010,0.002,69.910,-0.075
std. dev,28.431,14.135,14.135,2075.523,0.000,0.340,3.305,0.313,0.134,0.018,0.065,14.135,0.242

Complete Data:
Time,Heave_pos,Pitch_right,Pitch_left,Power_consumption,Noise,Fx,Fz,Mx,My,Mz,Inflow_velocity,Angle_of_attack,Efficiency
150.265,65.060,80.050,99.950,7104.000,0.000,,,,,,0.162,79.950,
150.337,59.110,83.380,96.620,6856.000,0.000,0.800,37.830,5.660,-0.210,0.040,0.115,83.280,0.117
150.409,55.690,87.230,92.770,3304.000,0.000,0.800,37.830,5.660,-0.210,0.040,0.066,87.130,0.242
151.506,56.510,95.430,84.570,1514.000,0.000,-0.050,31.320,5.560,0.030,-0.000,0.001,95.330,-0.033
151.578,60.750,100.330,79.670,2950.000,0.000,-0.050,31.320,5.560,0.030,-0.000,0.082,100.230,-0.017
151.650,67.540,104.540,75.460,5066.000,0.000,-0.040,31.280,5.550,0.030,-0.000,0.131,104.440,-0.008
151.722,76.480,107.730,72.270,4912.000,0.000,-0.040,31.280,5.550,0.030,-0.000,0.172,107.630,-0.008
151.794,86.520,109.550,70.450,1340.000,0.000,-0.090,30.470,5.520,0.100,-0.000,0.193,109.450,-0.067
151.866,97.310,109.970,70.030,2906.000,0.000,-0.090,30.470,5.520,0.100,-0.000,0.208,109.870,-0.031
151.939,108.080,108.900,71.100,6006.000,0.000,-0.090,30.470,5.520,0.100,-0.000,0.206,108.800,-0.015
152.011,117.610,106.500,73.500,5266.000,0.000,0.030,31.160,5.130,-0.180,0.000,0.184,106.400,0.006
152.083,125.720,102.810,77.190,6642.000,0.000,0.030,31.160,5.130,-0.180,0.000,0.157,102.710,0.005
152.154,131.470,98.220,81.780,2930.000,0.000,0.030,31.160,5.130,-0.180,0.000,0.111,98.120,0.010
152.226,134.540,93.030,86.970,3372.000,0.000,0.290,29.930,4.860,-0.190,0.010,0.059,92.930,0.086
152.298,134.720,87.620,92.380,412.000,0.000,0.290,29.930,4.860,-0.190,0.010,0.004,87.520,0.704
152.370,131.980,82.380,97.620,5328.000,0.000,0.170,28.920,5.030,-0.100,0.010,0.053,82.280,0.032
152.443,126.540,77.700,102.300,6800.000,0.000,0.170,28.920,5.030,-0.100,0.010,0.104,77.600,0.025
152.515,118.920,73.970,106.030,5050.000,0.000,0.170,28.920,5.030,-0.100,0.010,0.147,73.870,0.034
152.587,109.300,71.320,108.680,7392.000,0.000,-0.040,31.770,5.440,-0.090,-0.000,0.186,71.220,-0.005
152.660,98.760,70.090,109.910,7144.000,0.000,-0.040,31.770,5.440,-0.090,-0.000,0.201,69.990,-0.006
152.730,87.950,70.310,109.690,5420.000,0.000,0.520,36.370,5.700,-0.140,0.030,0.213,70.210,0.096
152.802,77.650,71.980,108.020,5692.000,0.000,0.520,36.370,5.700,-0.140,0.030,0.199,71.880,0.091
152.874,68.620,74.960,105.040,5450.000,0.000,0.520,36.370,5.700,-0.140,0.030,0.174,74.860,0.095
152.946,61.530,79.050,100.950,7254.000,0.000,1.120,37.780,5.580,-0.230,0.060,0.137,78.950,0.154
153.018,56.880,83.940,96.060,6236.000,0.000,1.120,37.780,5.580,-0.230,0.060,0.091,83.840,0.180
153.090,55.030,89.270,90.730,1294.000,0.000,1.120,37.780,5.580,-0.230,0.060,0.036,89.170,0.866
153.161,56.060,94.580,85.420,560.000,0.000,0.880,37.000,5.420,-0.250,0.040,0.020,94.480,1.571
153.233,59.950,99.640,80.360,1872.000,0.000,0.880,37.000,5.420,-0.250,0.040,0.075,99.540,0.470
153.306,66.500,104.040,75.960,3876.000,0.000,0.340,32.020,5.590,0.100,0.020,0.126,103.940,0.088
153.378,75.070,107.340,72.660,5000.000,0.000,0.340,32.020,5.590,0.100,0.020,0.164,107.240,0.068
153.449,84.960,109.360,70.640,5178.000,0.000,0.340,32.020,5.590,0.100,0.020,0.192,109.260,0.066
153.521,95.850,110.000,70.000,5642.000,0.000,-0.030,29.700,5.390,0.010,-0.000,0.210,109.900,-0.005
153.594,106.550,109.150,70.850,4588.000,0.000,-0.030,29.700,5.390,0.010,-0.000,0.204,109.050,-0.007
153.666,116.390,106.900,73.100,5714.000,0.000,0.260,30.520,4.810,-0.260,0.010,0.189,106.800,0.046
153.739,124.670,103.410,76.590,3644.000,0.000,0.260,30.520,4.810,-0.260,0.010,0.159,103.310,0.071
153.811,130.840,98.880,81.120,5584.000,0.000,0.260,30.520,4.810,-0.260,0.010,0.119,98.780,0.047
153.882,134.260,93.820,86.180,2170.000,0.000,0.290,29.670,4.790,-0.230,0.010,0.066,93.720,0.134
153.954,134.870,88.420,91.580,522.000,0.000,0.290,29.670,4.790,-0.230,0.010,0.012,88.320,0.556
154.026,132.510,83.060,96.940,6908.000,0.000,0.290,29.670,4.790,-0.230,0.010,0.045,82.960,0.042
154.099,127.510,78.350,101.650,4598.000,0.000,-0.010,29.380,5.120,-0.110,-0.000,0.096,78.250,-0.002
154.171,120.070,74.410,105.590,6046.000,0.000,-0.010,29.380,5.120,-0.110,-0.000,0.143,74.310,-0.002
154.243,110.650,71.600,108.400,7078.000,0.000,0.160,33.180,5.670,-0.060,0.010,0.181,71.500,0.023
154.316,100.210,70.170,109.830,4496.000,0.000,0.160,33.180,5.670,-0.060,0.010,0.200,70.070,0.036
154.387,89.390,70.200,109.800,7020.000,0.000,0.160,33.180,5.670,-0.060,0.010,0.211,70.100,0.023
154.459,78.980,71.670,108.330,6118.000,0.000,0.540,35.660,5.650,-0.100,0.030,0.201,71.570,0.088
154.531,69.740,74.490,105.510,6524.000,0.000,0.540,35.660,5.650,-0.100,0.030,0.178,74.390,0.083
154.603,62.350,78.450,101.550,6118.000,0.000,0.540,35.660,5.650,-0.100,0.030,0.142,78.350,0.088
154.675,57.350,83.250,96.750,6410.000,0.000,0.880,37.640,5.480,-0.270,0.040,0.098,83.150,0.137
154.746,55.110,88.540,91.460,2510.000,0.000,0.880,37.640,5.480,-0.270,0.040,0.043,88.440,0.351
154.818,55.790,93.940,86.060,1166.000,0.000,0.720,36.750,5.440,-0.230,0.040,0.013,93.840,0.617
154.890,59.340,99.060,80.940,2678.000,0.000,0.720,36.750,5.440,-0.230,0.040,0.069,98.960,0.269
154.963,65.500,103.510,76.490,5292.000,0.000,0.720,36.750,5.440,-0.230,0.040,0.117,103.410,0.136
155.035,73.690,106.930,73.070,1438.000,0.000,-0.030,30.350,5.490,0.110,-0.000,0.158,106.830,-0.021
155.107,83.700,109.180,70.820,5650.000,0.000,-0.030,30.350,5.490,0.110,-0.000,0.193,109.080,-0.005
155.179,94.400,110.000,70.000,5986.000,0.000,-0.120,29.160,5.260,-0.010,-0.010,0.206,109.900,-0.020
155.252,105.000,109.370,70.630,6292.000,0.000,-0.120,29.160,5.260,-0.010,-0.010,0.202,109.270,-0.019
155.323,115.140,107.280,72.720,7170.000,0.000,-0.120,29.160,5.260,-0.010,-0.010,0.196,107.180,-0.017
155.396,123.670,103.950,76.050,4310.000,0.000,0.320,30.920,4.690,-0.340,0.020,0.163,103.850,0.074
155.468,130.170,99.520,80.480,5316.000,0.000,0.320,30.920,4.690,-0.340,0.020,0.126,99.420,0.060
155.539,133.960,94.530,85.470,2134.000,0.000,0.320,30.920,4.690,-0.340,0.020,0.073,94.430,0.150
155.612,134.960,89.150,90.850,1212.000,0.000,0.270,29.330,4.810,-0.230,0.010,0.019,89.050,0.223
155.683,133.000,83.750,96.250,1336.000,0.000,0.270,29.330,4.810,-0.230,0.010,0.038,83.650,0.202
155.757,128.340,78.950,101.050,2298.000,0.000,-0.020,28.930,5.070,-0.070,-0.000,0.088,78.850,-0.009
155.829,121.070,74.830,105.170,6072.000,0.000,-0.020,28.930,5.070,-0.070,-0.000,0.140,74.730,-0.003
155.901,111.990,71.890,108.110,6976.000,0.000,-0.020,28.930,5.070,-0.070,-0.000,0.175,71.790,-0.003
155.973,101.650,70.280,109.720,6366.000,0.000,0.300,33.460,5.600,-0.050,0.010,0.199,70.180,0.047
156.045,90.840,70.110,109.890,5052.000,0.000,0.300,33.460,5.600,-0.050,0.010,0.209,70.010,0.059
156.117,80.320,71.400,108.600,5938.000,0.000,0.300,33.460,5.600,-0.050,0.010,0.203,71.300,0.051
156.188,70.880,74.040,105.960,6730.000,0.000,0.770,35.960,5.660,-0.130,0.040,0.183,73.940,0.114
156.260,63.210,77.860,102.140,7982.000,0.000,0.770,35.960,5.660,-0.130,0.040,0.148,77.760,0.096
156.332,57.860,82.570,97.430,6112.000,0.000,0.890,38.230,5.450,-0.320,0.040,0.103,82.470,0.146
156.404,55.240,87.820,92.180,3566.000,0.000,0.890,38.230,5.450,-0.320,0.040,0.051,87.720,0.250
156.476,55.520,93.230,86.770,1118.000,0.000,0.890,38.230,5.450,-0.320,0.040,0.005,93.130,0.796
156.547,58.700,98.400,81.600,1944.000,0.000,0.540,36.180,5.470,-0.170,0.030,0.062,98.300,0.278
156.620,64.530,102.960,77.040,5724.000,0.000,0.540,36.180,5.470,-0.170,0.030,0.111,102.860,0.094
156.693,72.600,106.570,73.430,4410.000,0.000,-0.010,29.760,5.410,0.160,-0.000,0.155,106.470,-0.002
156.765,82.310,108.970,71.030,3454.000,0.000,-0.010,29.760,5.410,0.160,-0.000,0.187,108.870,-0.003
156.836,92.940,109.970,70.030,2218.000,0.000,-0.010,29.760,5.410,0.160,-0.000,0.207,109.870,-0.005
156.909,103.730,109.520,70.480,7366.000,0.000,-0.060,29.010,5.120,-0.060,-0.000,0.206,109.420,-0.008
156.981,113.870,107.630,72.370,5226.000,0.000,-0.060,29.010,5.120,-0.060,-0.000,0.195,107.530,-0.011
157.053,122.750,104.410,75.590,5008.000,0.000,-0.060,29.010,5.120,-0.060,-0.000,0.169,104.310,-0.012
157.125,129.380,100.220,79.780,5836.000,0.000,0.340,30.320,4.700,-0.300,0.020,0.128,100.120,0.058
157.197,133.640,95.170,84.830,4296.000,0.000,0.340,30.320,4.700,-0.300,0.020,0.082,95.070,0.079
157.269,135.000,89.800,90.200,822.000,0.000,0.260,29.830,4.940,-0.210,0.010,0.026,89.700,0.316
157.341,133.470,84.520,95.480,1622.000,0.000,0.260,29.830,4.940,-0.210,0.010,0.029,84.420,0.160
157.414,129.040,79.500,100.500,3326.000,0.000,0.260,29.830,4.940,-0.210,0.010,0.085,79.400,0.078
157.486,122.160,75.320,104.680,7026.000,0.000,0.010,30.360,5.300,-0.060,-0.000,0.133,75.220,0.001
157.558,113.160,72.180,107.820,4958.000,0.000,0.010,30.360,5.300,-0.060,-0.000,0.173,72.080,0.002
157.630,103.090,70.410,109.590,7016.000,0.000,0.220,33.980,5.640,-0.050,0.010,0.194,70.310,0.031
157.702,92.140,70.050,109.950,7268.000,0.000,0.220,33.980,5.640,-0.050,0.010,0.212,69.950,0.030
157.774,81.550,71.170,108.830,6168.000,0.000,0.220,33.980,5.640,-0.050,0.010,0.204,71.070,0.036
157.846,72.060,73.620,106.380,7566.000,0.000,0.630,36.010,5.660,-0.110,0.030,0.183,73.520,0.083
157.918,64.020,77.350,102.650,7570.000,0.000,0.630,36.010,5.660,-0.110,0.030,0.154,77.250,0.083
157.989,58.370,81.960,98.040,7464.000,0.000,0.630,36.010,5.660,-0.110,0.030,0.110,81.860,0.084
158.061,55.420,87.090,92.910,4066.000,0.000,0.990,38.160,5.360,-0.340,0.050,0.057,86.990,0.243
158.133,55.330,92.580,87.420,1910.000,0.000,0.990,38.160,5.360,-0.340,0.050,0.002,92.480,0.518
158.205,58.170,97.800,82.200,5904.000,0.000,0.510,35.650,5.520,-0.120,0.030,0.055,97.700,0.086
158.278,63.610,102.400,77.600,3140.000,0.000,0.510,35.650,5.520,-0.120,0.030,0.104,102.300,0.162
158.350,71.410,106.150,73.850,4626.000,0.000,0.510,35.650,5.520,-0.120,0.030,0.151,106.050,0.110
158.421,81.070,108.750,71.250,2398.000,0.000,-0.180,28.970,5.420,0.150,-0.010,0.187,108.650,-0.075
158.493,91.490,109.920,70.080,5496.000,0.000,-0.180,28.970,5.420,0.150,-0.010,0.201,109.820,-0.033
158.566,102.300,109.660,70.340,6704.000,0.000,-0.180,28.970,5.420,0.150,-0.010,0.206,109.560,-0.027
158.639,112.710,107.930,72.070,6606.000,0.000,0.040,30.030,5.100,-0.150,0.000,0.200,107.830,0.006
158.711,121.790,104.850,75.150,5646.000,0.000,0.040,30.030,5.100,-0.150,0.000,0.173,104.750,0.007
158.783,128.690,100.780,79.220,5986.000,0.000,0.330,30.100,4.720,-0.280,0.020,0.134,100.680,0.055
158.854,133.240,95.870,84.130,1308.000,0.000,0.330,30.100,4.720,-0.280,0.020,0.089,95.770,0.252
158.926,134.990,90.450,89.550,1554.000,0.000,0.330,30.100,4.720,-0.280,0.020,0.034,90.350,0.212
158.998,133.810,85.150,94.850,2218.000,0.000,0.220,29.390,4.960,-0.170,0.010,0.023,85.050,0.099
159.070,129.710,80.060,99.940,1888.000,0.000,0.220,29.390,4.960,-0.170,0.010,0.079,79.960,0.117
159.143,123.110,75.770,104.230,4926.000,0.000,0.030,30.100,5.250,-0.080,0.000,0.126,75.670,0.006
159.215,114.450,72.520,107.480,5342.000,0.000,0.030,30.100,5.250,-0.080,0.000,0.167,72.420,0.006
159.288,104.360,70.560,109.440,6770.000,0.000,0.030,30.100,5.250,-0.080,0.000,0.194,70.460,0.004
159.360,93.590,70.010,109.990,6426.000,0.000,0.300,33.970,5.630,-0.040,0.010,0.207,69.910,0.047
159.432,82.930,70.930,109.070,6304.000,0.000,0.300,33.970,5.630,-0.040,0.010,0.207,70.830,0.048
159.504,73.140,73.250,106.750,6760.000,0.000,0.300,33.970,5.630,-0.040,0.010,0.188,73.150,0.044
159.576,64.860,76.850,103.150,6168.000,0.000,0.650,36.260,5.600,-0.140,0.030,0.160,76.750,0.105
159.647,58.910,81.370,98.630,6874.000,0.000,0.650,36.260,5.600,-0.140,0.030,0.115,81.270,0.095
159.719,55.640,86.450,93.550,6412.000,0.000,0.930,38.510,5.380,-0.350,0.050,0.063,86.350,0.145
159.790,55.190,91.930,88.070,856.000,0.000,0.930,38.510,5.380,-0.350,0.050,0.009,91.830,1.086
159.864,57.680,97.200,82.800,1272.000,0.000,0.930,38.510,5.380,-0.350,0.050,0.047,97.100,0.731
159.936,62.820,101.880,78.120,3546.000,0.000,0.340,34.040,5.420,-0.050,0.020,0.099,101.780,0.096
160.008,70.480,105.800,74.200,5568.000,0.000,0.340,34.040,5.420,-0.050,0.020,0.148,105.700,0.061
160.080,79.860,108.510,71.490,5406.000,0.000,0.340,34.040,5.420,-0.050,0.020,0.180,108.410,0.063
