Used Parameters:
Used Foils:,cambered_foils_balloon_off
Waterspeed:,0.0
Frequency:,0.7
Heave Amplitude:,38
Pitch Amplitude:,45
Camber Amplitude,90
Pitch Phase,0
Camber Phase,0
Turn Rate,0
Test Duration,10

Statistical Evaluation:
Time,Heave_pos,Pitch_right,Pitch_left,Power_consumption,Noise,Fx,Fz,Mx,My,Mz,Inflow_velocity,Angle_of_attack,Efficiency
average,94.847,89.683,90.317,3670.593,0.000,0.664,0.000,0.277,0.386,-0.006,0.147,89.583,0.257
max,133.000,134.990,135.000,7744.000,0.000,1.550,0.000,0.750,0.920,0.020,0.232,134.890,1.890
min,57.000,45.000,45.010,688.000,0.000,-0.440,0.000,-0.220,-0.260,-0.040,0.001,44.900,-0.279
std. dev,27.050,31.876,31.876,1447.203,0.000,0.565,0.000,0.259,0.353,0.013,0.072,31.876,0.329

Complete Data:
Time,Heave_pos,Pitch_right,Pitch_left,Power_consumption,Noise,Fx,Fz,Mx,My,Mz,Inflow_velocity,Angle_of_attack,Efficiency
199.222,57.230,94.940,85.060,132.000,0.000,-0.060,0.000,-0.030,-0.030,0.000,0.000,94.840,-0.455
199.294,60.410,108.620,71.380,7726.000,0.000,-0.060,0.000,-0.030,-0.030,0.000,0.061,108.520,-0.008
199.366,66.910,120.310,59.690,3572.000,0.000,-0.090,0.000,-0.040,-0.050,0.000,0.125,120.210,-0.025
199.439,76.420,129.260,50.740,6360.000,0.000,-0.090,0.000,-0.040,-0.050,0.000,0.183,129.160,-0.014
199.511,87.670,134.150,45.850,1064.000,0.000,-0.010,0.000,-0.020,0.010,-0.000,0.217,134.050,-0.009
199.582,99.480,134.690,45.310,4318.000,0.000,-0.010,0.000,-0.020,0.010,-0.000,0.228,134.590,-0.002
199.655,111.160,130.730,49.270,2798.000,0.000,-0.010,0.000,-0.020,0.010,-0.000,0.224,130.630,-0.004
199.727,121.060,122.750,57.250,3752.000,0.000,0.170,0.000,0.010,0.160,-0.010,0.191,122.650,0.045
199.799,128.380,111.510,68.490,6828.000,0.000,0.170,0.000,0.010,0.160,-0.010,0.140,111.410,0.025
199.871,132.380,98.130,81.870,2834.000,0.000,0.890,0.000,0.120,0.770,-0.030,0.078,98.030,0.314
199.943,132.650,83.940,96.060,3968.000,0.000,0.890,0.000,0.120,0.770,-0.030,0.005,83.840,0.224
200.015,129.190,70.360,109.640,2930.000,0.000,0.890,0.000,0.120,0.770,-0.030,0.067,70.260,0.304
200.088,122.320,58.720,121.280,4860.000,0.000,1.300,0.000,0.530,0.770,-0.010,0.132,58.620,0.267
200.160,112.740,50.200,129.800,5292.000,0.000,1.300,0.000,0.530,0.770,-0.010,0.184,50.100,0.246
200.231,101.390,45.640,134.360,688.000,0.000,1.300,0.000,0.530,0.770,-0.010,0.221,45.540,1.890
200.303,89.410,45.490,134.510,2960.000,0.000,0.090,0.000,0.130,-0.040,0.010,0.231,45.390,0.030
200.375,77.980,49.760,130.240,3402.000,0.000,0.090,0.000,0.130,-0.040,0.010,0.220,49.660,0.026
200.447,68.250,58.040,121.960,2570.000,0.000,0.340,0.000,0.070,0.270,-0.010,0.188,57.940,0.132
200.519,61.170,69.490,110.510,6082.000,0.000,0.340,0.000,0.070,0.270,-0.010,0.137,69.390,0.056
200.590,57.460,82.990,97.010,2832.000,0.000,0.340,0.000,0.070,0.270,-0.010,0.072,82.890,0.120
200.662,57.490,97.180,82.820,2694.000,0.000,1.110,0.000,0.380,0.720,-0.020,0.001,97.080,0.412
200.735,61.320,110.830,69.170,5522.000,0.000,1.110,0.000,0.380,0.720,-0.020,0.073,110.730,0.201
200.807,68.350,122.080,57.920,3896.000,0.000,1.210,0.000,0.520,0.690,-0.010,0.136,121.980,0.311
200.879,78.110,130.310,49.690,6036.000,0.000,1.210,0.000,0.520,0.690,-0.010,0.188,130.210,0.200
200.950,89.550,134.530,45.470,996.000,0.000,1.210,0.000,0.520,0.690,-0.010,0.223,134.430,1.215
201.023,101.530,134.330,45.670,4506.000,0.000,0.040,0.000,0.160,-0.130,0.010,0.228,134.230,0.009
201.095,112.870,129.720,50.280,4002.000,0.000,0.040,0.000,0.160,-0.130,0.010,0.219,129.620,0.010
201.168,122.540,121.010,58.990,3648.000,0.000,0.040,0.000,0.160,-0.130,0.010,0.186,120.910,0.011
201.239,129.250,109.490,70.510,5944.000,0.000,0.170,0.000,-0.040,0.210,-0.010,0.130,109.390,0.029
201.311,132.670,95.890,84.110,1586.000,0.000,0.170,0.000,-0.040,0.210,-0.010,0.066,95.790,0.107
201.383,132.320,81.510,98.490,3286.000,0.000,1.200,0.000,0.510,0.680,-0.010,0.007,81.410,0.365
201.456,128.310,68.350,111.650,3140.000,0.000,1.200,0.000,0.510,0.680,-0.010,0.076,68.250,0.382
201.528,120.840,57.000,123.000,3296.000,0.000,1.200,0.000,0.510,0.680,-0.010,0.144,56.900,0.364
201.600,110.880,49.120,130.880,5308.000,0.000,0.820,0.000,0.540,0.280,0.010,0.192,49.020,0.154
201.672,99.340,45.290,134.710,3264.000,0.000,0.820,0.000,0.540,0.280,0.010,0.223,45.190,0.251
201.744,87.360,45.920,134.080,4726.000,0.000,0.040,0.000,0.060,-0.020,0.000,0.230,45.820,0.008
201.816,76.150,50.930,129.070,5230.000,0.000,0.040,0.000,0.060,-0.020,0.000,0.217,50.830,0.008
201.888,66.700,59.970,120.030,2788.000,0.000,0.040,0.000,0.060,-0.020,0.000,0.182,59.870,0.014
201.960,60.280,71.710,108.290,4132.000,0.000,0.570,0.000,0.170,0.400,-0.010,0.124,71.610,0.138
202.031,57.200,85.430,94.570,3880.000,0.000,0.570,0.000,0.170,0.400,-0.010,0.060,85.330,0.147
202.103,57.870,99.600,80.400,3162.000,0.000,0.570,0.000,0.170,0.400,-0.010,0.013,99.500,0.180
202.176,62.240,112.810,67.190,7744.000,0.000,1.430,0.000,0.580,0.850,-0.010,0.083,112.710,0.185
202.248,69.870,123.750,56.250,4342.000,0.000,1.430,0.000,0.580,0.850,-0.010,0.147,123.650,0.329
202.320,80.000,131.340,48.660,4542.000,0.000,0.620,0.000,0.300,0.320,-0.000,0.196,131.240,0.137
202.392,91.610,134.820,45.180,1642.000,0.000,0.620,0.000,0.300,0.320,-0.000,0.223,134.720,0.378
202.464,103.570,133.840,46.160,2392.000,0.000,0.620,0.000,0.300,0.320,-0.000,0.229,133.740,0.259
202.536,114.670,128.500,51.500,6248.000,0.000,-0.340,0.000,-0.210,-0.120,-0.000,0.214,128.400,-0.054
202.608,123.820,119.330,60.670,2198.000,0.000,-0.340,0.000,-0.210,-0.120,-0.000,0.176,119.230,-0.155
202.681,130.100,107.250,72.750,4518.000,0.000,-0.340,0.000,-0.210,-0.120,-0.000,0.120,107.150,-0.075
202.752,132.900,93.250,86.750,1144.000,0.000,0.770,0.000,0.350,0.420,-0.000,0.054,93.150,0.673
202.825,131.910,79.300,100.700,2520.000,0.000,0.770,0.000,0.350,0.420,-0.000,0.019,79.200,0.306
202.897,127.170,66.060,113.940,1724.000,0.000,1.300,0.000,0.640,0.670,-0.000,0.091,65.960,0.754
202.969,119.280,55.380,124.620,1954.000,0.000,1.300,0.000,0.640,0.670,-0.000,0.152,55.280,0.665
203.042,108.810,48.080,131.920,1970.000,0.000,1.300,0.000,0.640,0.670,-0.000,0.202,47.980,0.660
203.113,97.270,45.080,134.920,2352.000,0.000,0.220,0.000,0.250,-0.030,0.010,0.224,44.980,0.094
203.185,85.340,46.480,133.520,2634.000,0.000,0.220,0.000,0.250,-0.030,0.010,0.231,46.380,0.084
203.257,74.240,52.310,127.690,5070.000,0.000,0.100,0.000,-0.020,0.120,-0.010,0.213,52.210,0.020
203.329,65.460,61.690,118.310,4194.000,0.000,0.100,0.000,-0.020,0.120,-0.010,0.169,61.590,0.024
203.401,59.430,74.170,105.830,5306.000,0.000,0.100,0.000,-0.020,0.120,-0.010,0.117,74.070,0.019
203.473,57.030,88.080,91.920,3176.000,0.000,0.950,0.000,0.120,0.820,-0.040,0.047,87.980,0.299
203.545,58.370,101.980,78.020,1970.000,0.000,0.950,0.000,0.120,0.820,-0.040,0.026,101.880,0.482
203.617,63.340,114.890,65.110,3414.000,0.000,0.950,0.000,0.120,0.820,-0.040,0.096,114.790,0.278
203.689,71.600,125.450,54.550,1294.000,0.000,1.360,0.000,0.510,0.850,-0.020,0.159,125.350,1.051
203.761,81.930,132.250,47.750,5250.000,0.000,1.360,0.000,0.510,0.850,-0.020,0.200,132.150,0.259
203.833,93.690,134.970,45.030,2416.000,0.000,0.050,0.000,0.160,-0.100,0.010,0.227,134.870,0.021
203.906,105.740,133.170,46.830,2268.000,0.000,0.050,0.000,0.160,-0.100,0.010,0.230,133.070,0.022
203.979,116.420,127.170,52.830,5108.000,0.000,0.050,0.000,0.160,-0.100,0.010,0.205,127.070,0.010
204.050,125.230,117.270,62.730,3322.000,0.000,-0.200,0.000,-0.220,0.030,-0.010,0.170,117.170,-0.060
204.123,130.900,104.760,75.240,6350.000,0.000,-0.200,0.000,-0.220,0.030,-0.010,0.109,104.660,-0.031
204.194,133.000,90.590,89.410,1636.000,0.000,1.100,0.000,0.450,0.650,-0.010,0.041,90.490,0.672
204.267,131.310,76.740,103.260,2310.000,0.000,1.100,0.000,0.450,0.650,-0.010,0.032,76.640,0.476
204.339,125.920,63.850,116.150,1822.000,0.000,1.100,0.000,0.450,0.650,-0.010,0.104,63.750,0.604
204.411,117.510,53.740,126.260,4070.000,0.000,1.270,0.000,0.750,0.510,0.010,0.162,53.640,0.312
204.483,106.860,47.250,132.750,5036.000,0.000,1.270,0.000,0.750,0.510,0.010,0.206,47.150,0.252
204.555,95.020,45.000,135.000,4100.000,0.000,1.270,0.000,0.750,0.510,0.010,0.229,44.900,0.310
204.627,83.190,47.230,132.770,3234.000,0.000,0.140,0.000,0.200,-0.060,0.010,0.229,47.130,0.043
204.699,72.530,53.710,126.290,3998.000,0.000,0.140,0.000,0.200,-0.060,0.010,0.206,53.610,0.035
204.771,64.100,63.800,116.200,5308.000,0.000,0.660,0.000,0.200,0.460,-0.010,0.162,63.700,0.124
204.843,58.750,76.500,103.500,4578.000,0.000,0.660,0.000,0.200,0.460,-0.010,0.103,76.400,0.144
204.914,57.000,90.540,89.460,976.000,0.000,0.660,0.000,0.200,0.460,-0.010,0.034,90.440,0.676
204.987,59.030,104.520,75.480,1704.000,0.000,1.550,0.000,0.620,0.920,-0.020,0.039,104.420,0.910
205.059,64.640,117.060,62.940,5072.000,0.000,1.550,0.000,0.620,0.920,-0.020,0.108,116.960,0.306
205.131,73.400,127.030,52.970,4464.000,0.000,1.550,0.000,0.620,0.920,-0.020,0.169,126.930,0.347
205.203,84.050,133.090,46.910,4610.000,0.000,0.880,0.000,0.390,0.490,-0.010,0.205,132.990,0.191
205.275,95.930,134.990,45.010,1996.000,0.000,0.880,0.000,0.390,0.490,-0.010,0.229,134.890,0.441
205.348,107.870,132.340,47.660,3854.000,0.000,-0.440,0.000,-0.180,-0.260,0.000,0.228,132.240,-0.114
205.420,118.230,125.610,54.390,4860.000,0.000,-0.440,0.000,-0.180,-0.260,0.000,0.199,125.510,-0.091
205.492,126.540,115.110,64.890,1576.000,0.000,-0.440,0.000,-0.180,-0.260,0.000,0.160,115.010,-0.279
205.564,131.570,102.230,77.770,5406.000,0.000,0.590,0.000,0.180,0.410,-0.010,0.096,102.130,0.109
205.636,132.970,88.130,91.870,3540.000,0.000,0.590,0.000,0.180,0.410,-0.010,0.027,88.030,0.167
205.708,130.590,74.230,105.770,4466.000,0.000,1.330,0.000,0.660,0.670,-0.000,0.046,74.130,0.298
205.781,124.570,61.730,118.270,1898.000,0.000,1.330,0.000,0.660,0.670,-0.000,0.116,61.630,0.701
205.853,115.800,52.340,127.660,1058.000,0.000,1.330,0.000,0.660,0.670,-0.000,0.169,52.240,1.257
205.925,104.700,46.490,133.510,5066.000,0.000,0.640,0.000,0.400,0.230,0.010,0.213,46.390,0.126
205.997,92.780,45.080,134.920,3614.000,0.000,0.640,0.000,0.400,0.230,0.010,0.231,44.980,0.177
206.069,81.230,48.060,131.940,4880.000,0.000,0.640,0.000,0.400,0.230,0.010,0.223,47.960,0.131
206.141,70.760,55.340,124.660,4156.000,0.000,0.080,0.000,0.020,0.060,-0.000,0.202,55.240,0.019
206.213,62.850,66.010,113.990,4194.000,0.000,0.080,0.000,0.020,0.060,-0.000,0.152,65.910,0.019
206.285,58.100,79.250,100.750,3162.000,0.000,1.030,0.000,0.240,0.790,-0.030,0.092,79.150,0.326
206.356,57.100,93.190,86.810,4400.000,0.000,1.030,0.000,0.240,0.790,-0.030,0.019,93.090,0.234
206.429,59.820,107.010,72.990,4860.000,0.000,1.030,0.000,0.240,0.790,-0.030,0.052,106.910,0.212
206.501,66.040,119.140,60.860,4184.000,0.000,1.500,0.000,0.600,0.910,-0.020,0.120,119.040,0.359
206.572,75.140,128.370,51.630,966.000,0.000,1.500,0.000,0.600,0.910,-0.020,0.177,128.270,1.553
206.645,86.220,133.780,46.220,5256.000,0.000,0.280,0.000,0.240,0.030,0.010,0.211,133.680,0.053
206.717,98.170,134.840,45.160,4528.000,0.000,0.280,0.000,0.240,0.030,0.010,0.232,134.740,0.062
206.789,109.810,131.440,48.560,2264.000,0.000,0.280,0.000,0.240,0.030,0.010,0.222,131.340,0.124
206.861,119.970,123.920,56.080,4908.000,0.000,-0.230,0.000,-0.170,-0.060,-0.010,0.196,123.820,-0.047
206.934,127.730,112.860,67.140,4112.000,0.000,-0.230,0.000,-0.170,-0.060,-0.010,0.148,112.760,-0.056
207.006,132.080,99.840,80.160,3938.000,0.000,-0.230,0.000,-0.170,-0.060,-0.010,0.084,99.740,-0.058
207.078,132.810,85.480,94.520,1146.000,0.000,0.970,0.000,0.330,0.640,-0.020,0.014,85.380,0.846
207.150,129.740,71.770,108.230,3694.000,0.000,0.970,0.000,0.330,0.640,-0.020,0.059,71.670,0.263
207.222,123.110,59.710,120.290,5162.000,0.000,1.340,0.000,0.700,0.640,0.000,0.127,59.610,0.260
207.295,113.890,50.950,129.050,4164.000,0.000,1.340,0.000,0.700,0.640,0.000,0.177,50.850,0.322
207.367,102.520,45.890,134.110,5112.000,0.000,1.340,0.000,0.700,0.640,0.000,0.218,45.790,0.262
207.439,90.550,45.310,134.690,5004.000,0.000,0.370,0.000,0.410,-0.030,0.020,0.232,45.210,0.074
207.510,79.170,49.090,130.910,2670.000,0.000,0.370,0.000,0.410,-0.030,0.020,0.221,48.990,0.139
207.582,69.070,57.100,122.900,2914.000,0.000,0.440,0.000,0.110,0.330,-0.010,0.195,57.000,0.151
207.655,61.710,68.300,111.700,4056.000,0.000,0.440,0.000,0.110,0.330,-0.010,0.141,68.200,0.108
207.726,57.660,81.650,98.350,3958.000,0.000,0.440,0.000,0.110,0.330,-0.010,0.078,81.550,0.111
207.798,57.320,95.840,84.160,2314.000,0.000,1.230,0.000,0.420,0.810,-0.020,0.007,95.740,0.532
207.870,60.730,109.440,70.560,2442.000,0.000,1.230,0.000,0.420,0.810,-0.020,0.065,109.340,0.504
207.943,67.430,120.970,59.030,3644.000,0.000,1.230,0.000,0.420,0.810,-0.020,0.129,120.870,0.338
208.014,77.090,129.690,50.310,5270.000,0.000,1.090,0.000,0.370,0.720,-0.020,0.187,129.590,0.207
208.087,88.420,134.320,45.680,4610.000,0.000,1.090,0.000,0.370,0.720,-0.020,0.218,134.220,0.236
208.159,100.570,134.510,45.490,3808.000,0.000,-0.140,0.000,0.010,-0.160,0.010,0.232,134.410,-0.037
