Used Parameters:
Used Foils:,wide_stiff_sharklets
Waterspeed:,0.0
Frequency:,0.7
Heave Amplitude:,38
Pitch Amplitude:,55
Camber Amplitude,90
Pitch Phase,0
Camber Phase,0
Turn Rate,0
Test Duration,10

Statistical Evaluation:
Time,Heave_pos,Pitch_right,Pitch_left,Power_consumption,Noise,Fx,Fz,Mx,My,Mz,Inflow_velocity,Angle_of_attack,Efficiency
average,94.895,89.622,90.378,6706.915,0.000,1.243,0.000,0.950,0.292,0.035,0.147,89.522,0.18533110975761583
max,133.000,145.000,144.990,16788.000,0.000,3.350,0.000,2.320,1.090,0.070,0.240,144.900,3.024
min,57.010,35.010,35.000,524.000,0.000,-1.350,0.000,-0.420,-0.960,-0.020,0.003,34.910,-2.405
std. dev,27.060,38.945,38.945,3770.875,0.000,1.258,0.000,0.742,0.563,0.020,0.071,38.945,0.483
Complete Data:,,,,,,,,,,,,,
Time,Heave_pos,Pitch_right,Pitch_left,Power_consumption,Noise,Fx,Fz,Mx,My,Mz,Inflow_velocity,Angle_of_attack,Efficiency
225.313,58.890,107.130,72.870,6560.000,0.000,-0.040,0.000,0.220,-0.260,0.020,0.002,107.030,-0.006
225.385,64.370,122.550,57.450,4348.000,0.000,-0.040,0.000,0.220,-0.260,0.020,0.106,122.450,-0.009
225.457,72.900,134.740,45.260,3640.000,0.000,-0.020,0.000,0.240,-0.270,0.030,0.165,134.640,-0.005
225.529,83.620,142.480,37.520,3516.000,0.000,-0.020,0.000,0.240,-0.270,0.030,0.206,142.380,-0.006
225.601,95.480,145.000,35.000,1488.000,0.000,-0.100,0.000,0.110,-0.200,0.020,0.229,144.900,-0.067
225.673,107.290,142.050,37.950,1436.000,0.000,-0.100,0.000,0.110,-0.200,0.020,0.226,141.950,-0.070
225.745,118.010,133.770,46.230,1130.000,0.000,-0.100,0.000,0.110,-0.200,0.020,0.207,133.670,-0.088
225.817,126.190,121.430,58.570,3694.000,0.000,0.190,0.000,0.250,-0.060,0.020,0.157,121.330,0.051
225.890,131.440,105.580,74.420,5292.000,0.000,0.190,0.000,0.250,-0.060,0.020,0.101,105.480,0.036
225.961,132.980,88.380,91.620,5590.000,0.000,1.410,0.000,0.950,0.460,0.030,0.030,88.280,0.252
226.033,130.800,71.560,108.440,4692.000,0.000,1.410,0.000,0.950,0.460,0.030,0.042,71.460,0.301
226.105,124.950,56.150,123.850,6066.000,0.000,1.410,0.000,0.950,0.460,0.030,0.113,56.050,0.232
226.177,116.180,44.340,135.660,6258.000,0.000,2.110,0.000,1.350,0.760,0.030,0.169,44.240,0.337
226.250,105.460,37.130,142.870,3300.000,0.000,2.110,0.000,1.350,0.760,0.030,0.205,37.030,0.639
226.321,93.400,35.050,144.950,6286.000,0.000,2.110,0.000,1.350,0.760,0.030,0.236,34.950,0.336
226.393,81.660,38.500,141.500,7680.000,0.000,0.140,0.000,0.310,-0.180,0.030,0.226,38.400,0.018
226.466,71.370,46.930,133.070,10574.000,0.000,0.140,0.000,0.310,-0.180,0.030,0.196,46.830,0.013
226.538,63.190,59.920,120.080,13572.000,0.000,1.660,0.000,1.080,0.580,0.030,0.158,59.820,0.122
226.611,58.300,75.750,104.250,14664.000,0.000,1.660,0.000,1.080,0.580,0.030,0.094,75.650,0.113
226.682,57.070,93.250,86.750,12740.000,0.000,1.660,0.000,1.080,0.580,0.030,0.024,93.150,0.130
226.754,59.590,109.960,70.040,4860.000,0.000,2.930,0.000,1.910,1.030,0.050,0.049,109.860,0.603
226.826,65.640,124.930,55.070,7032.000,0.000,2.930,0.000,1.910,1.030,0.050,0.117,124.830,0.417
226.898,74.760,136.550,43.450,7452.000,0.000,2.930,0.000,1.910,1.030,0.050,0.176,136.450,0.393
226.970,85.620,143.300,36.700,6174.000,0.000,2.350,0.000,1.480,0.870,0.030,0.209,143.200,0.381
227.042,97.550,144.880,35.120,4548.000,0.000,2.350,0.000,1.480,0.870,0.030,0.231,144.780,0.517
227.115,109.390,140.910,39.090,1236.000,0.000,-1.040,0.000,-0.080,-0.960,0.050,0.226,140.810,-0.841
227.187,119.500,132.050,47.950,1528.000,0.000,-1.040,0.000,-0.080,-0.960,0.050,0.195,131.950,-0.681
227.258,127.330,118.910,61.090,5236.000,0.000,-1.040,0.000,-0.080,-0.960,0.050,0.151,118.810,-0.199
227.331,131.980,102.670,77.330,4194.000,0.000,0.630,0.000,0.440,0.190,0.010,0.089,102.570,0.150
227.402,132.880,85.620,94.380,6278.000,0.000,0.630,0.000,0.440,0.190,0.010,0.018,85.520,0.100
227.475,129.990,68.540,111.460,4772.000,0.000,1.770,0.000,1.490,0.280,0.060,0.055,68.440,0.371
227.548,123.630,53.840,126.160,7454.000,0.000,1.770,0.000,1.490,0.280,0.060,0.120,53.740,0.237
227.619,114.430,42.730,137.270,6502.000,0.000,1.770,0.000,1.490,0.280,0.060,0.180,42.630,0.272
227.692,103.290,36.320,143.680,8350.000,0.000,1.200,0.000,0.490,0.710,-0.010,0.214,36.220,0.144
227.768,91.330,35.260,144.740,5472.000,0.000,1.200,0.000,0.490,0.710,-0.010,0.217,35.160,0.219
227.836,79.580,39.730,140.270,4846.000,0.000,1.200,0.000,0.490,0.710,-0.010,0.240,39.630,0.248
227.908,69.660,49.020,130.980,8650.000,0.000,0.620,0.000,0.490,0.130,0.020,0.192,48.920,0.072
227.980,62.020,62.690,117.310,11040.000,0.000,0.620,0.000,0.490,0.130,0.020,0.147,62.590,0.056
228.052,57.780,78.910,101.090,10630.000,0.000,2.040,0.000,1.400,0.640,0.040,0.082,78.810,0.192
228.123,57.230,96.000,84.000,12148.000,0.000,2.040,0.000,1.400,0.640,0.040,0.011,95.900,0.168
228.195,60.470,112.950,67.050,4582.000,0.000,2.040,0.000,1.400,0.640,0.040,0.062,112.850,0.445
228.267,67.120,127.370,52.630,9274.000,0.000,2.860,0.000,2.100,0.760,0.070,0.128,127.270,0.308
228.339,76.400,137.960,42.040,8002.000,0.000,2.860,0.000,2.100,0.760,0.070,0.179,137.860,0.357
228.411,87.810,144.010,35.990,6130.000,0.000,-0.420,0.000,0.000,-0.420,0.020,0.220,143.910,-0.069
228.483,99.790,144.560,35.440,1772.000,0.000,-0.420,0.000,0.000,-0.420,0.020,0.231,144.460,-0.237
228.556,111.140,139.790,40.210,2134.000,0.000,-0.420,0.000,0.000,-0.420,0.020,0.216,139.690,-0.197
228.628,121.170,129.880,50.120,1904.000,0.000,0.530,0.000,0.590,-0.060,0.030,0.194,129.780,0.278
228.701,128.450,116.100,63.900,3408.000,0.000,0.530,0.000,0.590,-0.060,0.030,0.140,116.000,0.156
228.772,132.430,99.490,80.510,6452.000,0.000,0.530,0.000,0.590,-0.060,0.030,0.077,99.390,0.082
228.844,132.630,82.390,97.610,6040.000,0.000,0.640,0.000,0.720,-0.080,0.040,0.004,82.290,0.106
228.916,129.050,65.590,114.410,4182.000,0.000,0.640,0.000,0.720,-0.080,0.040,0.069,65.490,0.153
228.991,122.110,51.450,128.550,8916.000,0.000,2.810,0.000,1.940,0.880,0.050,0.130,51.350,0.315
229.061,112.460,41.150,138.850,7514.000,0.000,2.810,0.000,1.940,0.880,0.050,0.191,41.050,0.374
229.133,101.090,35.710,144.290,6852.000,0.000,2.810,0.000,1.940,0.880,0.050,0.219,35.610,0.410
229.205,88.940,35.700,144.300,4552.000,0.000,-0.120,0.000,0.090,-0.210,0.020,0.235,35.600,-0.026
229.277,77.710,41.030,138.970,8264.000,0.000,-0.120,0.000,0.090,-0.210,0.020,0.217,40.930,-0.015
229.360,68.030,51.260,128.740,12784.000,0.000,1.380,0.000,1.080,0.300,0.040,0.161,51.160,0.108
229.421,60.960,65.560,114.440,14242.000,0.000,1.380,0.000,1.080,0.300,0.040,0.161,65.460,0.097
229.493,57.420,81.870,98.130,14858.000,0.000,1.380,0.000,1.080,0.300,0.040,0.069,81.770,0.093
229.565,57.570,99.460,80.540,10994.000,0.000,2.810,0.000,2.090,0.710,0.070,0.003,99.360,0.256
229.637,61.460,115.860,64.140,4968.000,0.000,2.810,0.000,2.090,0.710,0.070,0.075,115.760,0.566
229.709,68.570,129.520,50.480,7780.000,0.000,2.810,0.000,2.090,0.710,0.070,0.136,129.420,0.361
229.781,78.540,139.570,40.430,7484.000,0.000,2.690,0.000,1.870,0.820,0.050,0.193,139.470,0.359
229.853,90.020,144.530,35.470,5266.000,0.000,2.690,0.000,1.870,0.820,0.050,0.222,144.430,0.511
229.925,102.000,144.060,35.940,524.000,0.000,-1.260,0.000,-0.370,-0.900,0.030,0.230,143.960,-2.405
229.998,113.290,138.210,41.790,1806.000,0.000,-1.260,0.000,-0.370,-0.900,0.030,0.216,138.110,-0.698
230.070,122.750,127.570,52.430,2300.000,0.000,-1.260,0.000,-0.370,-0.900,0.030,0.182,127.470,-0.548
230.142,129.520,112.980,67.020,4198.000,0.000,0.360,0.000,0.400,-0.040,0.020,0.130,112.880,0.086
230.214,132.730,96.520,83.480,6386.000,0.000,0.360,0.000,0.400,-0.040,0.020,0.062,96.420,0.056
230.287,132.260,79.190,100.810,6220.000,0.000,0.360,0.000,0.400,-0.040,0.020,0.009,79.090,0.058
230.359,128.000,62.720,117.280,4244.000,0.000,2.130,0.000,1.620,0.510,0.060,0.082,62.620,0.502
230.431,120.610,49.370,130.630,6052.000,0.000,2.130,0.000,1.620,0.510,0.060,0.141,49.270,0.352
230.503,110.440,39.750,140.250,5636.000,0.000,1.190,0.000,0.830,0.360,0.020,0.198,39.650,0.211
230.575,98.860,35.280,144.720,7952.000,0.000,1.190,0.000,0.830,0.360,0.020,0.224,35.180,0.150
230.647,86.900,36.260,143.740,5488.000,0.000,1.190,0.000,0.830,0.360,0.020,0.230,36.160,0.217
230.719,75.740,42.590,137.410,6204.000,0.000,0.250,0.000,0.370,-0.130,0.030,0.215,42.490,0.040
230.791,66.390,53.810,126.190,9818.000,0.000,0.250,0.000,0.370,-0.130,0.030,0.180,53.710,0.025
230.863,60.020,68.510,111.490,16662.000,0.000,0.250,0.000,0.370,-0.130,0.030,0.122,68.410,0.015
230.935,57.150,85.100,94.900,15244.000,0.000,2.410,0.000,1.620,0.790,0.040,0.056,85.000,0.158
231.007,58.020,102.640,77.360,7314.000,0.000,2.410,0.000,1.620,0.790,0.040,0.017,102.540,0.330
231.079,62.570,118.680,61.320,3756.000,0.000,3.350,0.000,2.320,1.040,0.070,0.088,118.580,0.892
231.151,70.230,131.710,48.290,6944.000,0.000,3.350,0.000,2.320,1.040,0.070,0.148,131.610,0.482
231.223,80.590,140.890,39.110,6056.000,0.000,3.350,0.000,2.320,1.040,0.070,0.200,140.790,0.553
231.299,92.260,144.860,35.140,5584.000,0.000,0.550,0.000,0.240,0.310,-0.000,0.213,144.760,0.098
231.368,104.030,143.420,36.580,1330.000,0.000,0.550,0.000,0.240,0.310,-0.000,0.236,143.320,0.414
231.440,115.220,136.570,43.430,1924.000,0.000,-0.210,0.000,0.390,-0.590,0.050,0.218,136.470,-0.109
231.512,124.230,125.140,54.860,2704.000,0.000,-0.210,0.000,0.390,-0.590,0.050,0.172,125.040,-0.078
231.584,130.340,110.210,69.790,4790.000,0.000,-0.210,0.000,0.390,-0.590,0.050,0.118,110.110,-0.044
231.656,132.930,93.280,86.720,7570.000,0.000,0.160,0.000,0.360,-0.210,0.030,0.050,93.180,0.021
231.729,131.710,75.790,104.210,5688.000,0.000,0.160,0.000,0.360,-0.210,0.030,0.023,75.690,0.028
231.801,126.920,60.150,119.850,4424.000,0.000,0.160,0.000,0.360,-0.210,0.030,0.092,60.050,0.036
231.874,118.780,47.100,132.900,7020.000,0.000,2.630,0.000,1.880,0.750,0.060,0.155,47.000,0.375
231.945,108.370,38.510,141.490,4748.000,0.000,2.630,0.000,1.880,0.750,0.060,0.203,38.410,0.554
232.017,96.460,35.040,144.960,3526.000,0.000,-0.090,0.000,0.160,-0.250,0.020,0.230,34.940,-0.026
232.089,84.720,37.050,142.950,6204.000,0.000,-0.090,0.000,0.160,-0.250,0.020,0.226,36.950,-0.015
232.161,73.840,44.320,135.680,7074.000,0.000,-0.090,0.000,0.160,-0.250,0.020,0.211,44.220,-0.013
232.233,64.960,56.320,123.680,16122.000,0.000,1.370,0.000,0.830,0.540,0.020,0.170,56.220,0.085
232.306,59.260,71.300,108.700,14142.000,0.000,1.370,0.000,0.830,0.540,0.020,0.109,71.200,0.097
232.377,57.010,88.580,91.420,14624.000,0.000,1.370,0.000,0.830,0.540,0.020,0.044,88.480,0.094
232.449,58.600,105.780,74.220,9264.000,0.000,3.140,0.000,2.050,1.090,0.050,0.031,105.680,0.339
232.521,63.800,121.400,58.600,3552.000,0.000,3.140,0.000,2.050,1.090,0.050,0.100,121.300,0.884
232.594,72.110,133.900,46.100,8234.000,0.000,2.910,0.000,1.920,0.980,0.050,0.160,133.800,0.353
232.665,82.690,142.030,37.970,4400.000,0.000,2.910,0.000,1.920,0.980,0.050,0.204,141.930,0.661
232.738,94.500,145.000,35.000,5344.000,0.000,2.910,0.000,1.920,0.980,0.050,0.226,144.900,0.545
232.810,106.360,142.490,37.510,1272.000,0.000,-1.350,0.000,-0.420,-0.920,0.030,0.228,142.390,-1.061
232.882,117.080,134.760,45.240,960.000,0.000,-1.350,0.000,-0.420,-0.920,0.030,0.208,134.660,-1.406
232.954,125.710,122.380,57.620,5568.000,0.000,0.550,0.000,0.420,0.120,0.020,0.165,122.280,0.099
233.027,131.100,107.160,72.840,4316.000,0.000,0.550,0.000,0.420,0.120,0.020,0.103,107.060,0.127
233.099,133.000,89.790,90.210,5262.000,0.000,0.550,0.000,0.420,0.120,0.020,0.036,89.690,0.105
233.171,131.070,72.680,107.320,6376.000,0.000,1.440,0.000,1.290,0.150,0.060,0.037,72.580,0.226
233.243,125.550,57.280,122.720,6410.000,0.000,1.440,0.000,1.290,0.150,0.060,0.106,57.180,0.225
233.315,116.990,45.140,134.860,5564.000,0.000,1.440,0.000,1.290,0.150,0.060,0.166,45.040,0.259
233.387,106.080,37.390,142.610,754.000,0.000,2.280,0.000,1.240,1.040,0.010,0.211,37.290,3.024
233.458,94.380,35.010,144.990,6894.000,0.000,2.280,0.000,1.240,1.040,0.010,0.227,34.910,0.331
233.531,82.580,38.020,141.980,6210.000,0.000,0.220,0.000,0.430,-0.210,0.030,0.226,37.920,0.035
233.604,71.880,46.350,133.650,10480.000,0.000,0.220,0.000,0.430,-0.210,0.030,0.205,46.250,0.021
233.676,63.730,58.740,121.260,15392.000,0.000,0.220,0.000,0.430,-0.210,0.030,0.157,58.640,0.014
233.748,58.520,74.620,105.380,16788.000,0.000,1.770,0.000,1.200,0.570,0.030,0.100,74.520,0.105
233.820,57.020,91.830,88.170,13520.000,0.000,1.770,0.000,1.200,0.570,0.030,0.029,91.730,0.131
233.892,59.360,109.090,70.910,5194.000,0.000,1.770,0.000,1.200,0.570,0.030,0.045,108.990,0.341
233.963,65.140,124.010,55.990,3902.000,0.000,3.240,0.000,2.180,1.060,0.060,0.112,123.910,0.830
234.036,73.940,135.780,44.220,8572.000,0.000,3.240,0.000,2.180,1.060,0.060,0.169,135.680,0.378
234.108,85.000,143.060,36.940,4952.000,0.000,1.540,0.000,0.570,0.970,-0.020,0.212,142.960,0.311
234.180,96.740,144.940,35.060,3664.000,0.000,1.540,0.000,0.570,0.970,-0.020,0.228,144.840,0.420
