Used Parameters:
Used Foils:,wide_stiff_sharklets
Waterspeed:,0.0
Frequency:,0.6
Heave Amplitude:,38
Pitch Amplitude:,50
Camber Amplitude,90
Pitch Phase,0
Camber Phase,0
Turn Rate,0
Test Duration,10

Statistical Evaluation:
Time,Heave_pos,Pitch_right,Pitch_left,Power_consumption,Noise,Fx,Fz,Mx,My,Mz,Inflow_velocity,Angle_of_attack,Efficiency
average,93.221,92.689,87.311,5618.577,0.000,1.191,0.000,0.791,0.401,0.020,0.126,92.589,0.21197538095499982
max,133.000,140.000,139.940,15830.000,0.000,3.350,0.000,2.110,1.330,0.060,0.202,139.900,2.527
min,57.020,40.060,40.000,466.000,0.000,-1.180,0.000,-0.450,-0.730,-0.010,0.001,39.960,-1.242
std. dev,26.939,35.425,35.425,3889.900,0.000,1.266,0.000,0.727,0.566,0.016,0.061,35.425,0.460
Complete Data:,,,,,,,,,,,,,
Time,Heave_pos,Pitch_right,Pitch_left,Power_consumption,Noise,Fx,Fz,Mx,My,Mz,Inflow_velocity,Angle_of_attack,Efficiency
342.401,58.430,103.590,76.410,2386.000,0.000,-0.010,0.000,0.250,-0.260,0.030,0.027,103.490,-0.004
342.473,62.460,115.830,64.170,4856.000,0.000,-0.020,0.000,0.250,-0.270,0.030,0.078,115.730,-0.004
342.545,68.920,126.360,53.640,3702.000,0.000,-0.020,0.000,0.250,-0.270,0.030,0.125,126.260,-0.005
342.617,77.410,134.320,45.680,2114.000,0.000,0.000,0.000,0.250,-0.250,0.030,0.164,134.220,0.000
342.689,87.080,138.900,41.100,2588.000,0.000,0.000,0.000,0.250,-0.250,0.030,0.187,138.800,0.000
342.760,97.200,139.920,40.080,740.000,0.000,0.000,0.000,0.250,-0.250,0.030,0.196,139.820,0.000
342.834,107.420,137.250,42.750,1078.000,0.000,-0.100,0.000,0.220,-0.320,0.030,0.194,137.150,-0.093
342.906,116.600,131.140,48.860,2140.000,0.000,-0.100,0.000,0.220,-0.320,0.030,0.177,131.040,-0.047
342.978,124.100,122.160,57.840,4102.000,0.000,-0.100,0.000,0.220,-0.320,0.030,0.144,122.060,-0.024
343.050,129.640,110.550,69.450,7446.000,0.000,1.220,0.000,0.830,0.390,0.020,0.106,110.450,0.164
343.122,132.560,97.570,82.430,5132.000,0.000,1.220,0.000,0.830,0.390,0.020,0.057,97.470,0.238
343.194,132.730,84.050,95.950,4328.000,0.000,2.950,0.000,1.800,1.160,0.030,0.003,83.950,0.682
343.267,130.130,70.950,109.050,4456.000,0.000,2.950,0.000,1.800,1.160,0.030,0.049,70.850,0.662
343.338,124.970,59.260,120.740,3870.000,0.000,2.950,0.000,1.800,1.160,0.030,0.100,59.160,0.762
343.410,117.610,49.810,130.190,4752.000,0.000,1.710,0.000,0.900,0.810,0.000,0.142,49.710,0.360
343.482,108.590,43.310,136.690,6708.000,0.000,1.710,0.000,0.900,0.810,0.000,0.173,43.210,0.255
343.554,98.430,40.200,139.800,3886.000,0.000,-0.170,0.000,0.080,-0.250,0.020,0.198,40.100,-0.044
343.626,88.300,40.780,139.220,6764.000,0.000,-0.170,0.000,0.080,-0.250,0.020,0.193,40.680,-0.025
343.698,78.520,44.950,135.050,5584.000,0.000,-0.170,0.000,0.080,-0.250,0.020,0.188,44.850,-0.030
343.771,69.830,52.540,127.460,11748.000,0.000,1.510,0.000,1.040,0.470,0.030,0.167,52.440,0.129
343.843,63.120,62.790,117.210,15830.000,0.000,1.510,0.000,1.040,0.470,0.030,0.129,62.690,0.095
343.914,58.740,75.030,104.970,9086.000,0.000,1.510,0.000,1.040,0.470,0.030,0.085,74.930,0.166
343.987,57.020,88.370,91.630,12554.000,0.000,2.870,0.000,1.990,0.880,0.060,0.033,88.270,0.229
344.059,58.080,101.820,78.180,6822.000,0.000,2.870,0.000,1.990,0.880,0.060,0.020,101.720,0.421
344.130,61.840,114.420,65.580,3238.000,0.000,2.780,0.000,1.930,0.850,0.060,0.073,114.320,0.859
344.202,68.030,125.220,54.780,5796.000,0.000,2.780,0.000,1.930,0.850,0.060,0.119,125.120,0.480
344.275,76.190,133.450,46.550,3474.000,0.000,2.780,0.000,1.930,0.850,0.060,0.157,133.350,0.800
344.346,85.600,138.440,41.560,1058.000,0.000,-1.180,0.000,-0.450,-0.730,0.010,0.183,138.340,-1.115
344.418,95.950,139.980,40.020,950.000,0.000,-1.180,0.000,-0.450,-0.730,0.010,0.201,139.880,-1.242
344.491,106.110,137.820,42.180,2750.000,0.000,-1.180,0.000,-0.450,-0.730,0.010,0.193,137.720,-0.429
344.563,115.440,132.150,47.850,1510.000,0.000,0.180,0.000,0.300,-0.120,0.020,0.179,132.050,0.119
344.635,123.280,123.390,56.610,2202.000,0.000,0.180,0.000,0.300,-0.120,0.020,0.150,123.290,0.082
344.708,129.110,112.030,67.970,5142.000,0.000,0.700,0.000,0.310,0.390,-0.000,0.112,111.930,0.136
344.780,132.330,99.370,80.630,5976.000,0.000,0.700,0.000,0.310,0.390,-0.000,0.062,99.270,0.117
344.851,132.870,85.860,94.140,3804.000,0.000,0.700,0.000,0.310,0.390,-0.000,0.011,85.760,0.184
344.924,130.590,72.470,107.530,4538.000,0.000,2.910,0.000,1.590,1.330,0.010,0.044,72.370,0.641
344.996,125.710,60.560,119.440,3558.000,0.000,2.910,0.000,1.590,1.330,0.010,0.094,60.460,0.818
345.068,118.590,50.800,129.200,4138.000,0.000,1.240,0.000,0.680,0.560,0.010,0.137,50.700,0.300
345.140,109.740,43.910,136.090,5830.000,0.000,1.240,0.000,0.680,0.560,0.010,0.170,43.810,0.213
345.212,99.670,40.380,139.620,3766.000,0.000,1.240,0.000,0.680,0.560,0.010,0.195,40.280,0.329
345.285,89.530,40.520,139.480,7898.000,0.000,-0.040,0.000,0.200,-0.240,0.020,0.194,40.420,-0.005
345.356,79.650,44.260,135.740,8714.000,0.000,-0.040,0.000,0.200,-0.240,0.020,0.192,44.160,-0.005
345.429,70.780,51.470,128.530,12108.000,0.000,-0.040,0.000,0.200,-0.240,0.020,0.169,51.370,-0.003
345.501,63.900,61.280,118.720,11214.000,0.000,1.820,0.000,1.120,0.710,0.020,0.132,61.180,0.162
345.573,59.130,73.480,106.520,14094.000,0.000,1.820,0.000,1.120,0.710,0.020,0.092,73.380,0.129
345.644,57.080,86.740,93.260,11498.000,0.000,3.170,0.000,1.980,1.200,0.040,0.040,86.640,0.276
345.717,57.780,100.050,79.950,7186.000,0.000,3.170,0.000,1.980,1.200,0.040,0.013,99.950,0.441
345.788,61.250,112.980,67.020,2668.000,0.000,3.170,0.000,1.980,1.200,0.040,0.067,112.880,1.188
345.860,67.170,124.040,55.960,2884.000,0.000,2.650,0.000,1.530,1.120,0.020,0.114,123.940,0.919
345.933,75.120,132.620,47.380,4182.000,0.000,2.650,0.000,1.530,1.120,0.020,0.153,132.520,0.634
346.006,84.400,138.010,41.990,2356.000,0.000,2.650,0.000,1.530,1.120,0.020,0.177,137.910,1.125
346.076,94.710,140.000,40.000,1294.000,0.000,-0.950,0.000,-0.390,-0.560,0.010,0.202,139.900,-0.734
346.149,104.910,138.270,41.730,1776.000,0.000,-0.950,0.000,-0.390,-0.560,0.010,0.195,138.170,-0.535
346.220,114.380,133.010,46.990,636.000,0.000,0.390,0.000,0.330,0.060,0.010,0.185,132.910,0.613
346.293,122.440,124.590,55.410,2202.000,0.000,0.390,0.000,0.330,0.060,0.010,0.154,124.490,0.177
346.366,128.550,113.480,66.520,2706.000,0.000,0.390,0.000,0.330,0.060,0.010,0.117,113.380,0.144
346.438,132.070,100.970,79.030,4338.000,0.000,0.930,0.000,0.330,0.610,-0.010,0.068,100.870,0.214
346.509,132.950,87.490,92.510,7490.000,0.000,0.930,0.000,0.330,0.610,-0.010,0.017,87.390,0.124
346.582,131.010,74.010,105.990,3398.000,0.000,2.070,0.000,1.230,0.850,0.020,0.037,73.910,0.609
346.654,126.510,62.050,117.950,3014.000,0.000,2.070,0.000,1.230,0.850,0.020,0.087,61.950,0.687
346.726,119.550,51.840,128.160,5426.000,0.000,2.070,0.000,1.230,0.850,0.020,0.134,51.740,0.381
346.798,110.880,44.570,135.430,5872.000,0.000,0.550,0.000,0.370,0.180,0.010,0.167,44.470,0.094
346.870,101.040,40.640,139.360,6432.000,0.000,0.550,0.000,0.370,0.180,0.010,0.189,40.540,0.086
346.942,90.760,40.310,139.690,3240.000,0.000,0.550,0.000,0.370,0.180,0.010,0.200,40.210,0.170
347.014,80.790,43.630,136.370,7982.000,0.000,0.150,0.000,0.340,-0.180,0.030,0.192,43.530,0.019
347.086,71.750,50.450,129.550,11302.000,0.000,0.150,0.000,0.340,-0.180,0.030,0.173,50.350,0.013
347.158,64.630,59.950,120.050,13236.000,0.000,2.080,0.000,1.240,0.840,0.020,0.137,59.850,0.157
347.232,59.560,71.940,108.060,13946.000,0.000,2.080,0.000,1.240,0.840,0.020,0.096,71.840,0.149
347.303,57.180,85.110,94.890,13862.000,0.000,2.080,0.000,1.240,0.840,0.020,0.046,85.010,0.150
347.374,57.570,98.630,81.370,6530.000,0.000,3.350,0.000,2.110,1.240,0.050,0.008,98.530,0.513
347.446,60.700,111.520,68.480,3536.000,0.000,3.350,0.000,2.110,1.240,0.050,0.060,111.420,0.947
347.519,66.340,122.830,57.170,5796.000,0.000,3.350,0.000,2.110,1.240,0.050,0.108,122.730,0.578
347.591,74.080,131.740,48.260,4404.000,0.000,1.880,0.000,0.960,0.920,0.000,0.149,131.640,0.427
347.662,83.350,137.590,42.410,744.000,0.000,1.880,0.000,0.960,0.920,0.000,0.180,137.490,2.527
347.735,93.470,139.960,40.040,2258.000,0.000,-0.830,0.000,-0.230,-0.600,0.020,0.194,139.860,-0.368
347.808,103.710,138.670,41.330,3568.000,0.000,-0.830,0.000,-0.230,-0.600,0.020,0.195,138.570,-0.233
347.879,113.310,133.820,46.180,2224.000,0.000,-0.830,0.000,-0.230,-0.600,0.020,0.186,133.720,-0.373
347.952,121.670,125.620,54.380,1448.000,0.000,0.190,0.000,0.350,-0.160,0.030,0.160,125.520,0.131
348.024,127.950,114.910,65.090,2104.000,0.000,0.190,0.000,0.350,-0.160,0.030,0.121,114.810,0.090
348.096,131.820,102.370,77.630,6856.000,0.000,0.770,0.000,0.560,0.220,0.020,0.075,102.270,0.112
348.168,132.990,88.930,91.070,5580.000,0.000,0.770,0.000,0.560,0.220,0.020,0.023,88.830,0.138
348.240,131.380,75.570,104.430,3738.000,0.000,0.770,0.000,0.560,0.220,0.020,0.031,75.470,0.206
348.313,127.110,63.260,116.740,4522.000,0.000,1.970,0.000,1.280,0.680,0.030,0.082,63.160,0.436
348.385,120.490,52.910,127.090,3774.000,0.000,1.970,0.000,1.280,0.680,0.030,0.128,52.810,0.522
348.457,111.870,45.200,134.800,6390.000,0.000,1.970,0.000,1.280,0.680,0.030,0.166,45.100,0.308
348.529,102.260,40.920,139.080,7150.000,0.000,-0.010,0.000,0.130,-0.140,0.010,0.186,40.820,-0.001
348.601,91.850,40.170,139.830,5686.000,0.000,-0.010,0.000,0.130,-0.140,0.010,0.201,40.070,-0.002
348.672,81.810,43.110,136.890,6908.000,0.000,0.970,0.000,0.580,0.390,0.010,0.195,43.010,0.140
348.745,72.860,49.370,130.630,9702.000,0.000,0.970,0.000,0.580,0.390,0.010,0.172,49.270,0.100
348.817,65.300,58.810,121.190,13082.000,0.000,0.970,0.000,0.580,0.390,0.010,0.144,58.710,0.074
348.889,60.030,70.430,109.570,14304.000,0.000,2.320,0.000,1.390,0.930,0.020,0.102,70.330,0.162
348.961,57.310,83.670,96.330,13684.000,0.000,2.320,0.000,1.390,0.930,0.020,0.053,83.570,0.170
349.032,57.380,97.010,82.990,5010.000,0.000,2.320,0.000,1.390,0.930,0.020,0.001,96.910,0.463
349.105,60.240,110.200,69.800,2786.000,0.000,2.960,0.000,1.900,1.050,0.040,0.055,110.100,1.062
349.177,65.630,121.730,58.270,4528.000,0.000,2.960,0.000,1.900,1.050,0.040,0.104,121.630,0.654
349.249,73.050,130.820,49.180,3444.000,0.000,0.720,0.000,0.400,0.320,0.000,0.143,130.720,0.209
349.321,82.310,137.130,42.870,1160.000,0.000,0.720,0.000,0.400,0.320,0.000,0.179,137.030,0.621
349.393,92.380,139.880,40.120,1790.000,0.000,0.720,0.000,0.400,0.320,0.000,0.194,139.780,0.402
349.466,102.500,139.020,40.980,2926.000,0.000,-0.500,0.000,0.040,-0.540,0.030,0.191,138.920,-0.171
349.538,112.340,134.490,45.510,2028.000,0.000,-0.500,0.000,0.040,-0.540,0.030,0.190,134.390,-0.247
349.610,120.770,126.750,53.250,1668.000,0.000,0.370,0.000,0.290,0.080,0.010,0.162,126.650,0.222
349.683,127.310,116.310,63.690,2316.000,0.000,0.370,0.000,0.290,0.080,0.010,0.125,116.210,0.160
349.755,131.490,103.950,76.050,5676.000,0.000,0.370,0.000,0.290,0.080,0.010,0.081,103.850,0.065
349.826,133.000,90.380,89.620,5614.000,0.000,1.130,0.000,0.830,0.300,0.030,0.029,90.280,0.201
349.899,131.720,77.140,102.860,4076.000,0.000,1.130,0.000,0.830,0.300,0.030,0.024,77.040,0.277
349.971,127.680,64.490,115.510,3440.000,0.000,1.130,0.000,0.830,0.300,0.030,0.078,64.390,0.328
350.043,121.290,53.900,126.100,2188.000,0.000,2.160,0.000,1.210,0.950,0.010,0.122,53.800,0.987
350.115,112.840,45.860,134.140,5790.000,0.000,2.160,0.000,1.210,0.950,0.010,0.163,45.760,0.373
350.187,103.340,41.220,138.780,6638.000,0.000,0.000,0.000,-0.120,0.120,-0.010,0.183,41.120,0.000
350.259,93.090,40.060,139.940,5686.000,0.000,0.000,0.000,-0.120,0.120,-0.010,0.199,39.960,0.000
350.331,82.850,42.630,137.370,7606.000,0.000,0.000,0.000,-0.120,0.120,-0.010,0.198,42.530,0.000
350.404,73.760,48.540,131.460,10070.000,0.000,1.220,0.000,0.700,0.520,0.010,0.174,48.440,0.121
350.476,66.000,57.700,122.300,12914.000,0.000,1.220,0.000,0.700,0.520,0.010,0.149,57.600,0.094
350.548,60.480,69.110,110.890,14664.000,0.000,1.220,0.000,0.700,0.520,0.010,0.106,69.010,0.083
350.620,57.480,82.050,97.950,12288.000,0.000,2.440,0.000,1.440,1.000,0.020,0.058,81.950,0.199
350.691,57.240,95.580,84.420,8802.000,0.000,2.440,0.000,1.440,1.000,0.020,0.005,95.480,0.277
350.764,59.760,108.700,71.300,4200.000,0.000,3.010,0.000,1.970,1.040,0.050,0.048,108.600,0.717
350.836,64.860,120.450,59.550,4816.000,0.000,3.010,0.000,1.970,1.040,0.050,0.098,120.350,0.625
350.908,72.170,129.970,50.030,5004.000,0.000,3.010,0.000,1.970,1.040,0.050,0.141,129.870,0.602
350.980,81.280,136.630,43.370,1508.000,0.000,-0.530,0.000,-0.180,-0.350,0.010,0.176,136.530,-0.351
351.052,91.280,139.760,40.240,2098.000,0.000,-0.530,0.000,-0.180,-0.350,0.010,0.192,139.660,-0.253
351.124,101.420,139.280,40.720,466.000,0.000,-0.130,0.000,0.200,-0.330,0.030,0.197,139.180,-0.279
351.196,111.350,135.130,44.870,1710.000,0.000,-0.130,0.000,0.200,-0.330,0.030,0.190,135.030,-0.076
351.268,119.950,127.710,52.290,2458.000,0.000,-0.130,0.000,0.200,-0.330,0.030,0.166,127.610,-0.053
