Used Parameters:
Used Foils:,stiff_foils
Waterspeed:,0.0
Frequency:,0.8
Heave Amplitude:,38
Pitch Amplitude:,30
Camber Amplitude,90
Pitch Phase,0
Camber Phase,0
Turn Rate,0
Test Duration,10

Statistical Evaluation:
Time,Heave_pos,Pitch_right,Pitch_left,Power_consumption,Noise,Fx,Fz,Mx,My,Mz,Inflow_velocity,Angle_of_attack,Efficiency
average,93.829,90.523,89.477,6115.911,0.000,1.517,0.000,0.746,0.773,-0.001,0.165,90.423,0.2480415427889647
max,132.990,120.000,120.000,8874.000,0.000,2.530,0.000,1.450,1.410,0.030,0.268,119.900,1.333
min,57.000,60.000,60.000,1808.000,0.000,-0.090,0.000,-0.130,-0.030,-0.050,0.009,59.900,-0.015
std. dev,27.193,21.168,21.168,1528.699,0.000,0.816,0.000,0.447,0.436,0.018,0.082,21.168,0.251
Complete Data:,,,,,,,,,,,,,
Time,Heave_pos,Pitch_right,Pitch_left,Power_consumption,Noise,Fx,Fz,Mx,My,Mz,Inflow_velocity,Angle_of_attack,Efficiency
30.153,59.460,100.620,79.380,3684.000,0.000,0.070,0.000,-0.000,0.070,-0.000,0.047,100.520,0.019
30.225,66.530,109.870,70.130,3706.000,0.000,0.070,0.000,-0.000,0.070,-0.000,0.136,109.770,0.019
30.297,77.280,116.540,63.460,1658.000,0.000,0.120,0.000,0.010,0.110,-0.010,0.207,116.440,0.072
30.370,90.330,119.770,60.230,5850.000,0.000,0.120,0.000,0.010,0.110,-0.010,0.251,119.670,0.021
30.442,103.990,119.150,60.850,4142.000,0.000,0.120,0.000,0.010,0.110,-0.010,0.263,119.050,0.029
30.514,116.480,114.750,65.250,6006.000,0.000,0.300,0.000,0.010,0.290,-0.010,0.241,114.650,0.050
30.587,126.290,107.020,72.980,7170.000,0.000,0.300,0.000,0.010,0.290,-0.010,0.187,106.920,0.042
30.658,131.850,97.310,82.690,6194.000,0.000,0.300,0.000,0.010,0.290,-0.010,0.109,97.210,0.048
30.729,132.750,86.540,93.460,3892.000,0.000,2.370,0.000,1.240,1.130,0.010,0.017,86.440,0.609
30.802,128.660,76.080,103.920,3014.000,0.000,2.370,0.000,1.240,1.130,0.010,0.078,75.980,0.786
30.874,120.380,67.670,112.330,7490.000,0.000,1.430,0.000,0.830,0.600,0.010,0.159,67.570,0.191
30.947,108.540,61.970,118.030,7790.000,0.000,1.430,0.000,0.830,0.600,0.010,0.227,61.870,0.184
31.019,95.100,60.000,120.000,5194.000,0.000,1.430,0.000,0.830,0.600,0.010,0.259,59.900,0.275
31.090,81.810,61.860,118.140,7864.000,0.000,0.680,0.000,0.230,0.440,-0.010,0.258,61.760,0.086
31.162,69.910,67.470,112.530,7570.000,0.000,0.680,0.000,0.230,0.440,-0.010,0.230,67.370,0.090
31.234,61.430,75.950,104.050,8012.000,0.000,0.680,0.000,0.230,0.440,-0.010,0.164,75.850,0.085
31.306,57.320,86.090,93.910,7154.000,0.000,2.510,0.000,1.110,1.390,-0.010,0.080,85.990,0.351
31.378,58.010,96.870,83.130,6158.000,0.000,2.510,0.000,1.110,1.390,-0.010,0.013,96.770,0.408
31.450,63.600,106.890,73.110,5452.000,0.000,2.460,0.000,0.910,1.550,-0.030,0.107,106.790,0.451
31.522,73.050,114.490,65.510,7412.000,0.000,2.460,0.000,0.910,1.550,-0.030,0.182,114.390,0.332
31.594,85.460,119.040,60.960,6226.000,0.000,2.460,0.000,0.910,1.550,-0.030,0.239,118.940,0.395
31.666,99.290,119.810,60.190,5758.000,0.000,0.690,0.000,0.450,0.230,0.010,0.266,119.710,0.120
31.738,112.380,116.680,63.320,3152.000,0.000,0.690,0.000,0.450,0.230,0.010,0.252,116.580,0.219
31.810,123.220,110.090,69.910,7402.000,0.000,0.650,0.000,0.040,0.610,-0.030,0.210,109.990,0.088
31.883,130.400,100.900,79.100,8080.000,0.000,0.650,0.000,0.040,0.610,-0.030,0.138,100.800,0.080
31.954,133.000,90.300,89.700,3120.000,0.000,0.650,0.000,0.040,0.610,-0.030,0.050,90.200,0.208
32.027,130.670,79.660,100.340,5922.000,0.000,2.220,0.000,1.320,0.900,0.020,0.045,79.560,0.375
32.099,123.720,70.360,109.640,4526.000,0.000,2.220,0.000,1.320,0.900,0.020,0.134,70.260,0.490
32.171,112.890,63.530,116.470,7192.000,0.000,2.220,0.000,1.320,0.900,0.020,0.208,63.430,0.309
32.243,100.050,60.270,119.730,6774.000,0.000,0.830,0.000,0.540,0.300,0.010,0.248,60.170,0.123
32.315,86.380,60.780,119.220,6220.000,0.000,0.830,0.000,0.540,0.300,0.010,0.264,60.680,0.133
32.387,73.680,65.170,114.830,6810.000,0.000,0.810,0.000,0.240,0.570,-0.020,0.245,65.070,0.119
32.459,64.030,72.610,107.390,7320.000,0.000,0.810,0.000,0.240,0.570,-0.020,0.186,72.510,0.111
32.530,58.190,82.540,97.460,8504.000,0.000,0.810,0.000,0.240,0.570,-0.020,0.114,82.440,0.095
32.603,57.230,93.310,86.690,4834.000,0.000,2.170,0.000,0.960,1.210,-0.010,0.018,93.210,0.449
32.675,61.080,103.520,76.480,3736.000,0.000,2.170,0.000,0.960,1.210,-0.010,0.074,103.420,0.581
32.747,69.340,112.130,67.870,6050.000,0.000,1.860,0.000,0.760,1.100,-0.020,0.160,112.030,0.307
32.819,81.100,117.920,62.080,5476.000,0.000,1.860,0.000,0.760,1.100,-0.020,0.226,117.820,0.340
32.890,94.520,120.000,60.000,3998.000,0.000,1.860,0.000,0.760,1.100,-0.020,0.260,119.900,0.465
32.963,107.830,118.240,61.760,5250.000,0.000,0.280,0.000,0.320,-0.030,0.020,0.254,118.140,0.053
33.035,119.810,112.730,67.270,6252.000,0.000,0.280,0.000,0.320,-0.030,0.020,0.231,112.630,0.045
33.108,128.390,104.320,75.680,7972.000,0.000,0.280,0.000,0.320,-0.030,0.020,0.165,104.220,0.035
33.179,132.650,94.060,85.940,6436.000,0.000,2.130,0.000,1.190,0.940,0.010,0.083,93.960,0.331
33.251,132.030,83.270,96.730,5190.000,0.000,2.130,0.000,1.190,0.940,0.010,0.012,83.170,0.410
33.324,126.510,73.230,106.770,6056.000,0.000,1.990,0.000,1.080,0.910,0.010,0.105,73.130,0.329
33.396,117.100,65.600,114.400,6236.000,0.000,1.990,0.000,1.080,0.910,0.010,0.182,65.500,0.319
33.468,104.730,61.000,119.000,7202.000,0.000,1.990,0.000,1.080,0.910,0.010,0.238,60.900,0.276
33.539,90.900,60.180,119.820,5534.000,0.000,0.340,0.000,0.150,0.190,-0.000,0.268,60.080,0.061
33.612,77.960,63.180,116.820,7254.000,0.000,0.340,0.000,0.150,0.190,-0.000,0.249,63.080,0.047
33.683,66.910,69.800,110.200,7104.000,0.000,1.960,0.000,0.840,1.120,-0.010,0.213,69.700,0.276
33.756,59.670,78.960,101.040,8668.000,0.000,1.960,0.000,0.840,1.120,-0.010,0.139,78.860,0.226
33.827,57.000,89.550,90.450,8022.000,0.000,1.960,0.000,0.840,1.120,-0.010,0.052,89.450,0.244
33.900,59.200,100.060,79.940,1972.000,0.000,2.320,0.000,0.920,1.400,-0.020,0.042,99.960,1.176
33.972,66.150,109.530,70.470,5236.000,0.000,2.320,0.000,0.920,1.400,-0.020,0.134,109.430,0.443
34.044,76.780,116.330,63.670,6520.000,0.000,2.320,0.000,0.920,1.400,-0.020,0.205,116.230,0.356
34.116,89.570,119.690,60.310,6714.000,0.000,1.280,0.000,0.630,0.650,-0.000,0.247,119.590,0.191
34.188,103.430,119.250,60.750,5764.000,0.000,1.280,0.000,0.630,0.650,-0.000,0.266,119.150,0.222
34.260,116.000,115.000,65.000,3398.000,0.000,0.220,0.000,-0.130,0.360,-0.030,0.242,114.900,0.065
34.333,125.850,107.510,72.490,7678.000,0.000,0.220,0.000,-0.130,0.360,-0.030,0.187,107.410,0.029
34.405,131.710,97.750,82.250,6846.000,0.000,0.220,0.000,-0.130,0.360,-0.030,0.114,97.650,0.032
34.477,132.790,86.840,93.160,4002.000,0.000,2.210,0.000,1.190,1.020,0.010,0.021,86.740,0.552
34.549,129.010,76.620,103.380,7052.000,0.000,2.210,0.000,1.190,1.020,0.010,0.073,76.520,0.313
34.622,120.660,67.870,112.130,6426.000,0.000,1.320,0.000,0.870,0.450,0.020,0.160,67.770,0.205
34.693,109.080,62.130,117.870,7540.000,0.000,1.320,0.000,0.870,0.450,0.020,0.224,62.030,0.175
34.765,95.670,60.000,120.000,6442.000,0.000,1.320,0.000,0.870,0.450,0.020,0.260,59.900,0.205
34.837,82.170,61.760,118.240,6518.000,0.000,0.590,0.000,0.220,0.380,-0.010,0.260,61.660,0.091
34.909,70.340,67.180,112.820,6966.000,0.000,0.590,0.000,0.220,0.380,-0.010,0.228,67.080,0.085
34.981,61.610,75.680,104.320,7002.000,0.000,0.590,0.000,0.220,0.380,-0.010,0.169,75.580,0.084
35.053,57.380,85.790,94.210,8058.000,0.000,2.000,0.000,0.860,1.140,-0.010,0.082,85.690,0.248
35.125,57.930,96.580,83.420,5584.000,0.000,2.000,0.000,0.860,1.140,-0.010,0.011,96.480,0.358
35.197,63.280,106.520,73.480,6446.000,0.000,2.190,0.000,0.940,1.250,-0.020,0.103,106.420,0.340
35.269,72.740,114.310,65.690,6892.000,0.000,2.190,0.000,0.940,1.250,-0.020,0.181,114.210,0.318
35.341,85.090,118.960,61.040,3656.000,0.000,2.190,0.000,0.940,1.250,-0.020,0.239,118.860,0.599
35.413,98.720,119.860,60.140,5036.000,0.000,0.660,0.000,0.550,0.100,0.020,0.263,119.760,0.131
35.486,111.870,116.880,63.120,5502.000,0.000,0.660,0.000,0.550,0.100,0.020,0.250,116.780,0.120
35.558,122.830,110.430,69.570,7464.000,0.000,0.660,0.000,0.550,0.100,0.020,0.211,110.330,0.088
35.631,130.260,101.180,78.820,8342.000,0.000,0.860,0.000,-0.010,0.870,-0.050,0.143,101.080,0.103
35.702,132.990,90.750,89.250,4846.000,0.000,0.860,0.000,-0.010,0.870,-0.050,0.053,90.650,0.177
35.775,130.800,79.940,100.060,2016.000,0.000,2.370,0.000,1.430,0.940,0.030,0.042,79.840,1.176
35.846,123.970,70.590,109.410,5076.000,0.000,2.370,0.000,1.430,0.940,0.030,0.132,70.490,0.467
35.919,113.220,63.670,116.330,6138.000,0.000,2.370,0.000,1.430,0.940,0.030,0.207,63.570,0.386
35.991,100.430,60.310,119.690,6730.000,0.000,0.560,0.000,0.280,0.290,-0.000,0.247,60.210,0.083
36.063,86.570,60.750,119.250,6334.000,0.000,0.560,0.000,0.280,0.290,-0.000,0.268,60.650,0.088
36.135,74.000,65.000,115.000,7160.000,0.000,1.510,0.000,0.730,0.780,-0.000,0.243,64.900,0.211
36.206,64.260,72.370,107.630,7010.000,0.000,1.510,0.000,0.730,0.780,-0.000,0.188,72.270,0.215
36.278,58.290,82.250,97.750,8684.000,0.000,1.510,0.000,0.730,0.780,-0.000,0.115,82.150,0.174
36.350,57.190,93.010,86.990,7042.000,0.000,2.390,0.000,1.080,1.310,-0.010,0.021,92.910,0.339
36.423,60.910,103.250,76.750,4778.000,0.000,2.390,0.000,1.080,1.310,-0.010,0.071,103.150,0.500
36.495,69.060,111.920,68.080,4990.000,0.000,2.390,0.000,1.080,1.310,-0.010,0.157,111.820,0.479
36.567,80.750,117.810,62.190,7094.000,0.000,1.810,0.000,0.760,1.050,-0.020,0.225,117.710,0.255
36.639,93.950,119.990,60.010,5148.000,0.000,1.810,0.000,0.760,1.050,-0.020,0.255,119.890,0.352
36.712,107.650,118.290,61.710,5928.000,0.000,-0.090,0.000,-0.050,-0.030,-0.000,0.262,118.190,-0.015
36.784,119.520,112.920,67.080,6252.000,0.000,-0.090,0.000,-0.050,-0.030,-0.000,0.229,112.820,-0.014
36.856,128.210,104.580,75.420,7612.000,0.000,-0.090,0.000,-0.050,-0.030,-0.000,0.166,104.480,-0.012
36.927,132.600,94.360,85.640,8034.000,0.000,2.330,0.000,1.290,1.040,0.010,0.086,94.260,0.290
36.999,132.070,83.420,96.580,2552.000,0.000,2.330,0.000,1.290,1.040,0.010,0.010,83.320,0.913
37.072,126.720,73.480,106.520,4816.000,0.000,2.060,0.000,1.200,0.860,0.020,0.103,73.380,0.428
37.144,117.410,65.770,114.230,7976.000,0.000,2.060,0.000,1.200,0.860,0.020,0.178,65.670,0.258
37.216,104.910,61.040,118.960,6970.000,0.000,2.060,0.000,1.200,0.860,0.020,0.241,60.940,0.296
37.288,91.280,60.140,119.860,6134.000,0.000,0.440,0.000,0.240,0.190,0.000,0.264,60.040,0.072
37.360,78.130,63.120,116.880,6114.000,0.000,0.440,0.000,0.240,0.190,0.000,0.253,63.020,0.072
37.432,67.170,69.570,110.430,6878.000,0.000,0.440,0.000,0.240,0.190,0.000,0.211,69.470,0.064
37.505,59.740,78.820,101.180,8874.000,0.000,1.880,0.000,0.850,1.030,-0.010,0.143,78.720,0.212
37.576,57.010,89.250,90.750,8208.000,0.000,1.880,0.000,0.850,1.030,-0.010,0.053,89.150,0.229
37.648,59.130,99.910,80.090,3532.000,0.000,2.410,0.000,1.020,1.390,-0.020,0.041,99.810,0.682
37.721,65.900,109.300,70.700,1808.000,0.000,2.410,0.000,1.020,1.390,-0.020,0.129,109.200,1.333
37.792,76.440,116.180,63.820,4562.000,0.000,2.410,0.000,1.020,1.390,-0.020,0.205,116.080,0.528
37.864,89.390,119.670,60.330,6252.000,0.000,1.180,0.000,0.720,0.470,0.010,0.250,119.570,0.189
37.937,103.060,119.320,60.680,5626.000,0.000,1.180,0.000,0.720,0.470,0.010,0.262,119.220,0.210
38.009,115.680,115.170,64.830,5368.000,0.000,1.180,0.000,0.720,0.470,0.010,0.242,115.070,0.220
38.081,125.630,107.760,72.240,7304.000,0.000,0.390,0.000,-0.130,0.510,-0.030,0.192,107.660,0.053
38.153,131.660,97.900,82.100,6584.000,0.000,0.390,0.000,-0.130,0.510,-0.030,0.116,97.800,0.059
38.225,132.830,87.140,92.860,5138.000,0.000,2.530,0.000,1.450,1.080,0.020,0.023,87.040,0.492
38.298,129.090,76.750,103.250,6328.000,0.000,2.530,0.000,1.450,1.080,0.020,0.072,76.650,0.400
38.370,120.940,68.080,111.920,6848.000,0.000,2.530,0.000,1.450,1.080,0.020,0.156,67.980,0.369
38.442,109.250,62.190,117.810,5830.000,0.000,1.560,0.000,1.110,0.450,0.030,0.225,62.090,0.268
38.514,96.050,60.010,119.990,6970.000,0.000,1.560,0.000,1.110,0.450,0.030,0.256,59.910,0.224
38.586,82.530,61.660,118.340,7570.000,0.000,1.000,0.000,0.510,0.500,0.000,0.260,61.560,0.132
38.658,70.480,67.080,112.920,7032.000,0.000,1.000,0.000,0.510,0.500,0.000,0.232,66.980,0.142
38.730,61.890,75.280,104.720,8140.000,0.000,1.000,0.000,0.510,0.500,0.000,0.166,75.180,0.123
38.801,57.400,85.640,94.360,7236.000,0.000,2.520,0.000,1.270,1.250,0.000,0.087,85.540,0.348
38.873,57.880,96.430,83.570,5538.000,0.000,2.520,0.000,1.270,1.250,0.000,0.009,96.330,0.455
38.946,63.070,106.270,73.730,3568.000,0.000,2.520,0.000,1.270,1.250,0.000,0.100,106.170,0.706
39.017,72.590,114.230,65.770,5478.000,0.000,2.340,0.000,0.930,1.410,-0.020,0.185,114.130,0.427
