Used Foils:,stiff_foils
Waterspeed:,0.0
Frequency:,0.6
Heave Amplitude:,40
Pitch Amplitude:,75
Camber Amplitude,90
Pitch Phase,0
Camber Phase,0
Turn Rate,0
Test Duration, 10

Time,Heave_pos,Pitch_right,Pitch_left,Power_consumption,Noise
341.3128547668457,126.73,47.37,132.62,6430.00,0.00
341.3831648826599,118.92,33.89,146.11,4384.00,0.00
341.45524883270264,109.44,24.72,155.28,2920.00,0.00
341.52777886390686,98.91,20.34,159.66,4516.00,0.00
341.59926295280457,88.10,21.05,158.95,2906.00,0.00
341.67127776145935,77.65,26.93,153.07,2606.00,0.00
341.7433497905731,68.74,37.20,142.80,5770.00,0.00
341.81552171707153,61.61,51.46,128.54,5056.00,0.00
341.8875689506531,56.88,68.79,111.21,5780.00,0.00
342.93538188934326,55.00,90.26,89.74,1972.00,0.00
343.00751996040344,56.51,110.38,69.62,5712.00,0.00
343.0796768665314,60.83,128.99,51.01,5558.00,0.00
343.1516737937927,67.65,144.74,35.26,6266.00,0.00
343.2239727973938,76.48,156.48,23.52,5328.00,0.00
343.2963910102844,86.67,163.35,16.65,1508.00,0.00
343.3675899505615,97.61,164.84,15.16,3012.00,0.00
343.44032192230225,108.08,160.88,19.12,3804.00,0.00
343.5124650001526,117.73,151.71,28.29,1796.00,0.00
343.584597826004,125.82,137.81,42.19,6800.00,0.00
343.6572470664978,131.47,120.82,59.18,3254.00,0.00
343.7290349006653,134.56,101.08,78.92,6086.00,0.00
343.80030608177185,134.70,80.79,99.21,5624.00,0.00
343.8729088306427,131.98,61.43,118.57,5052.00,0.00
343.94526982307434,126.45,43.66,136.34,6684.00,0.00
344.01767468452454,118.67,29.55,150.45,3434.00,0.00
344.08946990966797,109.16,19.86,160.14,2946.00,0.00
344.1611359119415,98.61,15.31,164.69,4040.00,0.00
344.23305201530457,87.80,16.22,163.78,2090.00,0.00
344.30527997016907,77.38,22.67,157.33,4472.00,0.00
344.37685990333557,68.51,33.80,146.20,3182.00,0.00
344.4489438533783,61.36,49.42,130.58,6246.00,0.00
344.52092385292053,56.79,67.81,112.19,6052.00,0.00
344.5927269458771,55.02,87.55,92.45,6430.00,0.00
344.66518473625183,56.13,107.74,72.26,6354.00,0.00
344.73734188079834,60.17,126.87,53.13,4194.00,0.00
344.8099820613861,66.61,142.83,37.17,5902.00,0.00
344.8814618587494,75.20,155.17,24.83,5924.00,0.00
344.9532558917999,85.39,162.81,17.19,2720.00,0.00
345.02503299713135,96.01,164.98,15.02,2464.00,0.00
345.09761595726013,106.69,161.73,18.27,2668.00,0.00
345.1697008609772,116.64,153.07,26.93,3612.00,0.00
345.2422468662262,124.77,140.09,39.91,5778.00,0.00
345.31450605392456,130.91,123.04,56.96,5832.00,0.00
345.38667392730713,134.32,103.78,76.22,5134.00,0.00
345.4582939147949,134.84,83.22,96.78,3974.00,0.00
345.5308918952942,132.46,63.71,116.29,5280.00,0.00
345.6033020019531,127.24,45.61,134.39,2120.00,0.00
345.6753270626068,119.71,31.03,148.97,2950.00,0.00
345.74728512763977,110.38,20.76,159.24,3906.00,0.00
345.81887698173523,99.91,15.57,164.43,5588.00,0.00
345.89068698883057,89.09,15.82,164.18,6196.00,0.00
345.9629237651825,78.70,21.51,158.49,4326.00,0.00
346.03557205200195,69.50,32.21,147.79,1566.00,0.00
346.1071608066559,62.09,47.38,132.62,3792.00,0.00
346.1793360710144,57.25,65.22,114.78,3634.00,0.00
346.25091195106506,55.09,85.10,94.90,3178.00,0.00
346.32364082336426,55.88,105.62,74.38,2562.00,0.00
346.3955910205841,59.54,124.72,55.28,3028.00,0.00
346.4671959877014,65.70,141.07,38.93,4214.00,0.00
346.53940892219543,74.21,154.07,25.93,4994.00,0.00
346.61287784576416,84.13,162.18,17.82,4100.00,0.00
346.6832928657532,94.70,165.00,15.00,4318.00,0.00
346.75539994239807,105.58,162.33,17.67,452.00,0.00
346.8282718658447,115.53,154.36,25.64,3520.00,0.00
346.900573015213,123.99,141.68,38.32,5624.00,0.00
346.97258710861206,130.32,125.22,54.78,3218.00,0.00
347.04433703422546,134.09,105.90,74.10,4184.00,0.00
347.11593890190125,134.94,85.95,94.05,3774.00,0.00
347.18856287002563,132.90,66.02,113.98,4850.00,0.00
347.2606248855591,128.00,47.61,132.39,4336.00,0.00
347.3330979347229,120.84,32.76,147.24,4260.00,0.00
347.4051489830017,111.57,21.74,158.26,5220.00,0.00
347.477098941803,101.21,15.91,164.09,658.00,0.00
347.5490999221802,90.24,15.53,164.47,5276.00,0.00
347.62142395973206,79.90,20.55,159.45,3854.00,0.00
347.69313788414,70.52,30.68,149.32,3792.00,0.00
347.7651526927948,62.85,45.38,134.62,5180.00,0.00
347.83716797828674,57.70,62.92,117.08,1264.00,0.00
347.9087450504303,55.18,82.94,97.06,3398.00,0.00
347.98107290267944,55.63,103.22,76.78,4496.00,0.00
348.05339884757996,58.89,122.27,57.73,2772.00,0.00
348.12542605400085,64.93,139.46,40.54,4110.00,0.00
348.19770407676697,73.10,152.76,27.24,3716.00,0.00
348.26930379867554,82.74,161.39,18.61,3910.00,0.00
348.342307806015,93.54,164.95,15.05,4598.00,0.00
348.4140591621399,104.31,162.94,17.06,2098.00,0.00
348.48653984069824,114.53,155.45,24.55,3558.00,0.00
348.5591378211975,123.07,143.43,36.57,1756.00,0.00
348.63117694854736,129.76,127.12,52.88,3430.00,0.00
348.70336294174194,133.79,108.29,71.71,4106.00,0.00
348.77496576309204,134.99,88.12,91.88,3234.00,0.00
348.8474678993225,133.25,68.08,111.92,3548.00,0.00
348.9196057319641,128.64,49.42,130.58,4542.00,0.00
348.9914939403534,121.72,34.18,145.82,3594.00,0.00
349.064090013504,112.62,22.67,157.33,6164.00,0.00
349.1359519958496,102.35,16.28,163.72,2448.00,0.00
349.20735692977905,91.69,15.26,164.74,5640.00,0.00
349.27939891815186,80.98,19.76,160.24,5178.00,0.00
349.3512830734253,71.45,29.38,150.62,4588.00,0.00
349.42398977279663,63.64,43.44,136.56,5486.00,0.00
349.4961128234863,58.13,60.91,119.09,4384.00,0.00
349.56731700897217,55.32,80.51,99.49,5164.00,0.00
349.64002680778503,55.44,101.08,78.92,4028.00,0.00
349.71278381347656,58.41,120.30,59.70,2850.00,0.00
349.7840919494629,64.08,137.59,42.41,5696.00,0.00
349.8561828136444,72.14,151.55,28.45,2844.00,0.00
349.92795395851135,81.64,160.69,19.31,3430.00,0.00
350.00013184547424,92.24,164.82,15.18,4368.00,0.00
350.07252287864685,103.19,163.41,16.59,2756.00,0.00
350.1453700065613,113.25,156.74,23.26,2690.00,0.00
350.21719574928284,122.24,144.93,35.07,1530.00,0.00
350.289204120636,129.09,129.23,50.77,5758.00,0.00
350.3624677658081,133.45,110.65,69.35,2778.00,0.00
350.4330508708954,135.00,90.57,89.43,3572.00,0.00
350.505872964859,133.58,70.16,109.84,3640.00,0.00
350.57801389694214,129.33,51.50,128.50,3972.00,0.00
350.6500868797302,122.56,35.65,144.35,3926.00,0.00
350.7225937843323,113.78,23.78,156.22,5306.00,0.00
350.7945668697357,103.48,16.70,163.30,4672.00,0.00
350.86595010757446,92.84,15.11,164.89,3784.00,0.00
350.93812584877014,82.21,18.94,161.06,4934.00,0.00
351.0103209018707,72.39,28.13,151.87,3706.00,0.00
351.08245372772217,64.47,41.54,138.46,4436.00,0.00
351.1543848514557,58.60,58.92,121.08,4964.00,0.00
351.2264437675476,55.48,78.36,101.64,4352.00,0.00
351.29770398139954,55.25,98.37,81.63,2950.00,0.00
351.37020993232727,57.96,118.31,61.69,3808.00,0.00
351.4421977996826,63.36,135.89,44.11,5026.00,0.00
351.51454281806946,70.96,149.95,30.05,4044.00,0.00
351.5867910385132,80.56,159.94,20.06,4480.00,0.00
351.6588408946991,91.09,164.64,15.36,2552.00,0.00
351.73136591911316,101.90,163.88,16.12,3700.00,0.00
351.8033359050751,112.21,157.70,22.30,3782.00,0.00
351.877977848053,121.38,146.38,33.62,1684.00,0.00
351.9480037689209,128.47,131.06,48.94,4112.00,0.00
352.02058601379395,133.12,112.73,67.27,5532.00,0.00
352.0933458805084,134.97,92.73,87.27,3490.00,0.00
352.1647686958313,133.87,72.26,107.74,3166.00,0.00
352.23678183555603,129.98,53.62,126.38,3264.00,0.00
352.30909180641174,123.39,37.17,142.83,4490.00,0.00
352.3807649612427,114.80,24.83,155.17,5794.00,0.00
352.45281887054443,104.90,17.33,162.67,6098.00,0.00
352.5249910354614,93.99,15.02,164.98,6168.00,0.00
352.5971097946167,83.31,18.27,161.73,3286.00,0.00
352.66918301582336,73.36,26.93,153.07,5606.00,0.00
352.74084305763245,65.23,39.91,140.09,5394.00,0.00
352.8133227825165,59.09,56.96,123.04,5624.00,0.00
352.88561177253723,55.68,76.22,103.78,4526.00,0.00
352.9564518928528,55.14,96.21,83.79,3972.00,0.00
353.02918696403503,57.54,116.29,63.71,5288.00,0.00
353.10124588012695,62.67,134.16,45.84,4174.00,0.00
353.1732199192047,70.05,148.62,31.38,5932.00,0.00
353.2456068992615,79.48,159.13,20.87,4508.00,0.00
353.31735587120056,89.94,164.40,15.60,2458.00,0.00
353.38995480537415,100.76,164.22,15.78,3830.00,0.00
353.46214413642883,111.16,158.60,21.40,4302.00,0.00
353.5343909263611,120.50,147.79,32.21,1990.00,0.00
353.6068160533905,127.83,132.85,47.14,3394.00,0.00
353.67921113967896,132.75,114.78,65.22,3398.00,0.00
353.7507178783417,134.91,94.90,85.10,5984.00,0.00
353.82419991493225,134.12,74.38,105.62,5088.00,0.00
353.89594888687134,130.53,55.53,124.47,5754.00,0.00
353.9677357673645,124.19,38.73,141.27,5984.00,0.00
354.0402808189392,115.79,25.93,154.07,1734.00,0.00
354.11239290237427,105.87,17.82,162.18,4358.00,0.00
354.1838629245758,95.15,15.00,165.00,1836.00,0.00
354.25557374954224,84.42,17.67,162.33,2632.00,0.00
