Used Foils:,stiff_foils
Waterspeed:,0.0
Frequency:,0.5
Heave Amplitude:,38
Pitch Amplitude:,75
Camber Amplitude,90
Pitch Phase,0
Camber Phase,0
Turn Rate,0
Test Duration, 10

Time,Heave_pos,Pitch_right,Pitch_left,Power_consumption,Noise
160.19472479820251,57.00,90.00,90.00,132.00,0.00
160.26727771759033,57.99,107.05,72.95,5594.00,0.00
160.339124917984,60.87,123.00,57.00,3628.00,0.00
160.4112458229065,65.42,137.08,42.92,3998.00,0.00
160.4832956790924,71.62,149.12,30.88,4090.00,0.00
160.5554130077362,78.93,157.96,22.04,2988.00,0.00
160.6273558139801,86.94,163.30,16.70,2032.00,0.00
160.69929575920105,95.60,164.99,15.01,2822.00,0.00
160.77167177200317,104.10,162.82,17.18,2772.00,0.00
160.8439917564392,112.25,156.83,23.17,2886.00,0.00
160.91572189331055,119.31,147.64,32.36,816.00,0.00
160.98810172080994,125.24,135.41,44.59,3756.00,0.00
161.0605447292328,129.68,120.65,59.35,4964.00,0.00
161.13246893882751,132.26,104.75,75.25,4854.00,0.00
161.2041049003601,132.98,87.64,92.36,5482.00,0.00
161.27657294273376,131.75,70.89,109.11,4092.00,0.00
161.3485279083252,128.69,55.32,124.68,4882.00,0.00
161.42118406295776,123.82,41.11,138.89,4754.00,0.00
161.4932680130005,117.53,29.60,150.40,2310.00,0.00
161.56512594223022,110.09,21.17,158.83,4752.00,0.00
161.63693380355835,101.89,16.24,163.76,944.00,0.00
161.7087926864624,93.33,15.07,164.93,4132.00,0.00
161.78072786331177,84.74,17.78,162.22,3366.00,0.00
161.85279178619385,76.90,24.05,155.95,2192.00,0.00
161.924822807312,69.87,33.74,146.26,2622.00,0.00
161.9968729019165,64.05,46.49,133.51,3388.00,0.00
162.06888484954834,59.94,61.08,118.92,5298.00,0.00
162.1408188343048,57.55,77.34,102.66,6000.00,0.00
162.21187686920166,57.07,94.47,85.53,5790.00,0.00
162.28418469429016,58.51,110.92,69.08,4316.00,0.00
162.3562467098236,61.82,126.54,53.46,1612.00,0.00
162.42824387550354,66.81,140.30,39.70,3684.00,0.00
162.50040769577026,73.25,151.50,28.50,3176.00,0.00
162.57252097129822,80.79,159.56,20.44,3368.00,0.00
162.64446473121643,89.06,164.08,15.92,3648.00,0.00
162.71626091003418,97.62,164.82,15.18,682.00,0.00
162.789315700531,106.06,161.75,18.25,3296.00,0.00
162.86149287223816,114.03,154.91,25.09,2294.00,0.00
162.93363571166992,120.93,144.83,35.17,3358.00,0.00
163.00609064102173,126.50,131.96,48.04,4162.00,0.00
163.07799458503723,130.46,116.95,63.05,3766.00,0.00
163.15032196044922,132.64,100.33,79.67,5940.00,0.00
163.2216718196869,132.86,83.65,96.35,4066.00,0.00
163.29445099830627,131.18,67.05,112.95,4218.00,0.00
163.36631870269775,127.59,51.42,128.58,3382.00,0.00
163.43879580497742,122.45,38.15,141.85,1590.00,0.00
163.51070976257324,115.76,27.19,152.81,4030.00,0.00
163.58311581611633,108.10,19.59,160.41,3624.00,0.00
163.6544427871704,99.76,15.59,164.41,3756.00,0.00
163.72647190093994,91.19,15.38,164.62,4276.00,0.00
163.79831075668335,82.80,18.97,161.03,2668.00,0.00
163.87078189849854,74.94,26.30,153.70,3892.00,0.00
163.94287061691284,68.30,36.63,143.37,4318.00,0.00
164.01478481292725,62.92,49.81,130.19,5180.00,0.00
164.08693480491638,59.13,65.26,114.74,5030.00,0.00
164.15848088264465,57.24,81.54,98.46,6544.00,0.00
164.2301619052887,57.24,98.46,81.54,5898.00,0.00
164.3029487133026,59.21,115.18,64.82,4948.00,0.00
164.37433671951294,62.92,130.19,49.81,2822.00,0.00
164.44672894477844,68.30,143.37,36.63,4646.00,0.00
164.51871371269226,75.15,153.95,26.05,1600.00,0.00
164.5909628868103,82.80,161.03,18.97,4112.00,0.00
164.6629078388214,91.19,164.62,15.38,2252.00,0.00
164.73413372039795,99.88,164.38,15.62,770.00,0.00
164.80746173858643,108.10,160.41,19.59,3684.00,0.00
164.87965965270996,115.86,152.69,27.31,2284.00,0.00
164.95217275619507,122.45,141.85,38.15,4460.00,0.00
165.02407884597778,127.71,128.18,51.82,5062.00,0.00
165.09640765190125,131.18,112.95,67.05,5260.00,0.00
165.16801381111145,132.87,96.12,83.88,6836.00,0.00
165.24072670936584,132.60,79.20,100.80,3150.00,0.00
165.31273865699768,130.46,63.05,116.95,4384.00,0.00
165.38448572158813,126.43,47.84,132.16,3136.00,0.00
165.45687675476074,120.84,35.01,144.99,4634.00,0.00
165.52895069122314,113.93,24.97,155.03,3620.00,0.00
165.6012887954712,106.06,18.25,161.75,4368.00,0.00
165.6727638244629,97.51,15.16,164.84,3110.00,0.00
165.7450397014618,89.06,15.92,164.08,3040.00,0.00
165.81709790229797,80.68,20.53,159.47,3640.00,0.00
165.88923382759094,73.15,28.64,151.36,4682.00,0.00
165.96101784706116,66.81,39.70,140.30,5388.00,0.00
166.03307580947876,61.76,53.66,126.34,5184.00,0.00
166.10520195960999,58.48,69.30,110.70,5564.00,0.00
166.17669677734375,57.05,86.00,94.00,5442.00,0.00
166.2489378452301,57.57,102.89,77.11,5822.00,0.00
166.32073783874512,59.98,119.14,60.86,964.00,0.00
166.3930938243866,64.19,133.89,46.11,4492.00,0.00
166.4650776386261,69.96,146.41,33.59,2504.00,0.00
166.53708291053772,77.01,156.06,23.94,1890.00,0.00
166.60926389694214,84.97,162.34,17.66,3830.00,0.00
166.68160676956177,93.45,164.94,15.06,3142.00,0.00
166.75408577919006,102.00,163.72,16.28,3932.00,0.00
166.826397895813,110.31,158.64,21.36,2858.00,0.00
166.89812779426575,117.62,150.26,29.74,848.00,0.00
166.97094774246216,123.97,138.53,41.47,5696.00,0.00
167.04318070411682,128.75,124.47,55.53,4590.00,0.00
167.11535477638245,131.84,108.42,71.58,4214.00,0.00
167.18694281578064,132.99,91.88,88.12,5678.00,0.00
167.25970792770386,132.21,74.79,105.21,4742.00,0.00
167.33161878585815,129.53,58.71,121.29,3484.00,0.00
167.40355372428894,125.10,44.22,135.78,3156.00,0.00
167.47576379776,119.13,32.06,147.94,4436.00,0.00
167.54773879051208,111.93,22.86,157.14,3670.00,0.00
167.61942291259766,103.87,17.07,162.93,872.00,0.00
167.69146871566772,95.36,15.00,165.00,3840.00,0.00
167.76359677314758,86.71,16.81,163.19,3666.00,0.00
167.83566904067993,78.71,22.24,157.76,3084.00,0.00
167.9081380367279,71.43,31.17,148.83,4672.00,0.00
167.98013877868652,65.27,43.29,136.71,3510.00,0.00
168.0521297454834,60.77,57.43,122.57,5102.00,0.00
168.12412977218628,57.92,73.64,106.36,6026.00,0.00
168.19572257995605,57.00,90.47,89.53,5706.00,0.00
168.26801586151123,58.02,107.28,72.72,5296.00,0.00
168.34008288383484,60.93,123.21,56.79,2044.00,0.00
168.412184715271,65.57,137.44,42.56,4788.00,0.00
168.48406767845154,71.71,149.26,30.74,3762.00,0.00
168.55591297149658,79.04,158.06,21.94,3340.00,0.00
168.62797379493713,87.18,163.39,16.61,3070.00,0.00
168.70017385482788,95.72,164.99,15.01,1294.00,0.00
168.77292490005493,104.22,162.76,17.24,3772.00,0.00
168.84530472755432,112.25,156.83,23.17,2632.00,0.00
168.9172339439392,119.50,147.34,32.66,3002.00,0.00
168.98969864845276,125.32,135.22,44.78,2496.00,0.00
169.06163382530212,129.73,120.43,59.57,3700.00,0.00
169.13408994674683,132.30,104.28,75.72,6004.00,0.00
