Used Foils:,stiff_foils
Waterspeed:,0.0
Frequency:,0.7
Heave Amplitude:,40
Pitch Amplitude:,20
Camber Amplitude,90
Pitch Phase,0
Camber Phase,0
Turn Rate,0
Test Duration, 10

Time,Heave_pos,Pitch_right,Pitch_left,Power_consumption,Noise
280.2724368572235,70.96,101.99,78.01,2864.00,0.00
280.3445827960968,82.11,104.20,75.80,6248.00,0.00
280.4174418449402,94.55,105.00,75.00,4912.00,0.00
280.4892520904541,107.03,104.31,75.69,5216.00,0.00
280.5610558986664,118.31,102.19,77.81,7246.00,0.00
280.6331808567047,127.27,98.86,81.14,5912.00,0.00
280.70465087890625,133.08,94.59,85.41,5000.00,0.00
280.7769980430603,135.00,89.92,90.08,1356.00,0.00
280.8483009338379,133.00,85.31,94.69,452.00,0.00
280.92107582092285,127.11,81.05,98.95,1016.00,0.00
280.99341201782227,118.08,77.75,102.25,3312.00,0.00
281.0653359889984,106.93,75.68,104.32,7996.00,0.00
281.1371479034424,94.27,75.00,105.00,6842.00,0.00
281.20922112464905,81.85,75.83,104.17,6914.00,0.00
281.28108382225037,70.88,78.03,101.97,7960.00,0.00
281.35242891311646,62.04,81.50,98.50,6366.00,0.00
281.42456889152527,56.62,85.77,94.23,6846.00,0.00
282.47257685661316,55.00,90.07,89.93,132.00,0.00
282.5449628829956,57.04,96.31,83.69,1026.00,0.00
282.61734890937805,62.86,101.91,78.09,3650.00,0.00
282.689435005188,71.73,106.27,73.73,4322.00,0.00
282.76105785369873,83.19,109.11,70.89,4620.00,0.00
282.83308696746826,95.68,110.00,70.00,3674.00,0.00
282.9054129123688,107.93,108.93,71.07,5426.00,0.00
282.9773859977722,119.08,105.97,74.03,4182.00,0.00
283.0493059158325,127.93,101.36,78.64,6724.00,0.00
283.12068605422974,133.31,95.75,84.25,3322.00,0.00
283.19195103645325,134.99,89.50,90.50,990.00,0.00
283.26444697380066,132.69,83.30,96.70,4420.00,0.00
283.3366858959198,126.53,77.69,102.31,528.00,0.00
283.4089939594269,117.44,73.44,106.56,5932.00,0.00
283.48108315467834,106.01,70.77,109.23,3690.00,0.00
283.5526809692383,93.32,70.02,109.98,7072.00,0.00
283.62440180778503,81.12,71.24,108.76,7452.00,0.00
283.6965308189392,70.13,74.34,105.66,7190.00,0.00
283.76850605010986,61.51,79.06,100.94,6944.00,0.00
283.83995294570923,56.41,84.73,95.27,7216.00,0.00
283.9114179611206,55.05,91.00,89.00,3106.00,0.00
283.98366498947144,57.66,97.18,82.82,4594.00,0.00
284.0557689666748,63.88,102.56,77.44,1740.00,0.00
284.1276650428772,73.25,106.78,73.22,2598.00,0.00
284.19987201690674,84.96,109.36,70.64,3568.00,0.00
284.27170181274414,97.34,109.97,70.03,6502.00,0.00
284.34422492980957,109.65,108.61,71.39,6976.00,0.00
284.41638588905334,120.65,105.35,74.65,6786.00,0.00
284.488862991333,128.84,100.66,79.34,6954.00,0.00
284.56001591682434,133.84,94.78,85.22,4980.00,0.00
284.63192486763,134.89,88.49,91.51,868.00,0.00
284.704421043396,131.96,82.36,97.64,5370.00,0.00
284.7765381336212,125.48,77.05,102.95,2696.00,0.00
284.84865403175354,115.75,72.90,107.10,5390.00,0.00
284.92116808891296,104.07,70.52,109.48,7038.00,0.00
284.99243092536926,91.49,70.08,109.92,7130.00,0.00
285.0642490386963,79.25,71.62,108.38,5764.00,0.00
285.1360900402069,68.59,74.98,105.02,6492.00,0.00
285.2080149650574,60.54,79.84,100.16,8042.00,0.00
285.27941703796387,55.93,85.71,94.29,7386.00,0.00
285.3517589569092,55.20,92.01,87.99,1382.00,0.00
285.42315578460693,58.36,98.02,81.98,5380.00,0.00
285.4956500530243,65.18,103.33,76.67,1956.00,0.00
285.568039894104,75.12,107.35,72.65,3240.00,0.00
285.6396930217743,86.74,109.57,70.43,3268.00,0.00
285.71181893348694,99.34,109.88,70.12,4656.00,0.00
285.7847590446472,111.67,108.18,71.82,6456.00,0.00
285.856586933136,122.16,104.68,75.32,6354.00,0.00
285.9281928539276,129.95,99.72,80.28,6330.00,0.00
286.0001587867737,134.27,93.80,86.20,3758.00,0.00
286.0724220275879,134.68,87.49,92.51,1264.00,0.00
286.14424109458923,131.23,81.52,98.48,2048.00,0.00
286.2164578437805,124.02,76.24,103.76,3486.00,0.00
286.28871297836304,114.01,72.40,107.60,6246.00,0.00
286.3608899116516,102.10,70.32,109.68,6322.00,0.00
286.432247877121,89.49,70.19,109.81,7726.00,0.00
286.5046408176422,77.43,72.03,107.97,7314.00,0.00
286.57652711868286,67.11,75.66,104.34,7776.00,0.00
286.6479630470276,59.57,80.72,99.28,8044.00,0.00
286.7200608253479,55.55,86.70,93.30,7136.00,0.00
286.7917528152466,55.43,92.92,87.08,1734.00,0.00
286.8638048171997,59.29,99.01,80.99,3774.00,0.00
286.9360499382019,66.68,104.12,75.88,2208.00,0.00
287.00802302360535,76.89,107.83,72.17,5334.00,0.00
287.080050945282,88.72,109.75,70.25,5446.00,0.00
287.152468919754,101.51,109.73,70.27,6154.00,0.00
287.22448682785034,113.47,107.74,72.26,5302.00,0.00
287.2965180873871,123.60,103.98,76.02,6494.00,0.00
287.3683397769928,130.89,98.83,81.17,5152.00,0.00
287.44037079811096,134.60,92.81,87.19,3876.00,0.00
287.51239800453186,134.38,86.50,93.50,1186.00,0.00
287.58458375930786,130.24,80.54,99.46,5624.00,0.00
287.65727400779724,122.60,75.52,104.48,3068.00,0.00
287.7293291091919,112.21,71.95,108.05,6482.00,0.00
287.8013207912445,100.11,70.16,109.84,6738.00,0.00
287.87259101867676,87.33,70.37,109.63,7520.00,0.00
287.94456005096436,75.49,72.54,107.46,8284.00,0.00
288.01660680770874,65.70,76.38,103.62,7046.00,0.00
288.08802795410156,58.61,81.70,98.30,7344.00,0.00
288.1599109172821,55.25,87.78,92.22,7534.00,0.00
288.2320737838745,55.81,93.99,86.01,1380.00,0.00
288.30362200737,60.24,99.90,80.10,4978.00,0.00
288.3760607242584,68.14,104.82,75.18,3096.00,0.00
288.4479899406433,78.70,108.26,71.74,3234.00,0.00
288.5200481414795,90.89,109.89,70.11,4030.00,0.00
288.59236097335815,103.48,109.55,70.45,6124.00,0.00
288.6647279262543,115.23,107.25,72.75,5596.00,0.00
288.7367899417877,124.97,103.25,76.75,6422.00,0.00
288.80843901634216,131.80,97.84,82.16,4726.00,0.00
288.8804829120636,134.84,91.81,88.19,1806.00,0.00
288.95263409614563,133.98,85.51,94.49,1360.00,0.00
289.0252070426941,129.16,79.59,100.41,1694.00,0.00
289.0974807739258,120.98,74.79,105.21,4418.00,0.00
289.1694779396057,110.38,71.54,108.46,6338.00,0.00
289.241024017334,97.94,70.05,109.95,7370.00,0.00
289.31296396255493,85.37,70.59,109.41,7032.00,0.00
289.3849558830261,73.76,73.05,106.95,7170.00,0.00
289.45699977874756,64.26,77.20,102.80,7888.00,0.00
289.5285270214081,57.82,82.63,97.37,7878.00,0.00
289.6006398200989,55.09,88.69,91.31,5938.00,0.00
289.672730922699,56.30,95.06,84.94,3392.00,0.00
289.7450668811798,61.38,100.83,79.17,1976.00,0.00
289.8171730041504,69.66,105.47,74.53,2598.00,0.00
289.88895773887634,80.56,108.65,71.35,5216.00,0.00
289.9606430530548,93.07,109.98,70.02,5070.00,0.00
290.03341794013977,105.43,109.31,70.69,6134.00,0.00
290.1057839393616,117.09,106.67,73.33,6402.00,0.00
290.17767786979675,126.37,102.41,77.59,7186.00,0.00
