Used Foils:,cambered_foils_balloon_off
Waterspeed:,0.0
Frequency:,0.7
Heave Amplitude:,38
Pitch Amplitude:,50
Camber Amplitude,90
Pitch Phase,0
Camber Phase,0
Turn Rate,0
Test Duration,10

Time,Heave_pos,Pitch_right,Pitch_left,Power_consumption,Noise
212.21285033226013,57.00,90.00,90.00,132.00,0.00
212.28522419929504,58.89,105.57,74.43,2688.00,0.00
212.3576741218567,64.37,119.59,60.41,3752.00,0.00
212.4297490119934,72.90,130.67,49.33,3722.00,0.00
212.50156331062317,83.62,137.71,42.29,5986.00,0.00
212.57372903823853,95.48,140.00,40.00,1448.00,0.00
212.64622020721436,107.29,137.31,42.69,1754.00,0.00
212.71798038482666,117.87,129.93,50.07,3758.00,0.00
212.79049825668335,126.19,118.57,61.43,5338.00,0.00
212.86255431175232,131.44,104.16,75.84,6638.00,0.00
212.93378114700317,132.99,88.74,91.26,2306.00,0.00
213.00619435310364,130.80,73.24,106.76,6144.00,0.00
213.07809925079346,124.95,59.23,120.77,3720.00,0.00
213.15051698684692,116.32,48.61,131.39,3942.00,0.00
213.222638130188,105.46,41.93,138.07,5332.00,0.00
213.29381608963013,93.40,40.04,139.96,898.00,0.00
213.36618423461914,81.66,43.18,136.82,4758.00,0.00
213.43817234039307,71.37,50.84,129.16,4528.00,0.00
213.51028203964233,63.19,62.65,117.35,3050.00,0.00
213.5819492340088,58.30,77.05,102.95,2366.00,0.00
213.6534652709961,57.05,92.51,87.49,1274.00,0.00
213.72587537765503,59.59,108.14,71.86,4784.00,0.00
213.79753828048706,65.64,121.75,58.25,3260.00,0.00
213.8695821762085,74.48,132.08,47.92,5168.00,0.00
213.9415900707245,85.46,138.40,41.60,5796.00,0.00
214.01364040374756,97.55,139.89,40.11,2042.00,0.00
214.0864703655243,109.08,136.44,43.56,4604.00,0.00
214.15866327285767,119.50,128.22,51.78,4164.00,0.00
214.23075938224792,127.33,116.29,63.71,4762.00,0.00
214.30300617218018,131.98,101.52,78.48,4532.00,0.00
214.3739583492279,132.88,86.01,93.99,918.00,0.00
214.44702434539795,130.05,70.69,109.31,5450.00,0.00
214.51904726028442,123.63,57.12,122.88,4080.00,0.00
214.59111309051514,114.57,47.14,132.86,5116.00,0.00
214.6630802154541,103.29,41.20,138.80,5270.00,0.00
214.7347173690796,91.33,40.23,139.77,2268.00,0.00
214.8067741394043,79.89,44.12,135.88,4824.00,0.00
214.87917113304138,69.66,52.74,127.26,3448.00,0.00
214.95107626914978,62.10,64.98,115.02,1884.00,0.00
215.02339935302734,57.85,79.49,100.51,4164.00,0.00
215.09456729888916,57.23,95.46,84.54,1546.00,0.00
215.1668541431427,60.40,110.66,69.34,5148.00,0.00
215.23898720741272,66.89,123.65,56.35,4318.00,0.00
215.3109691143036,76.40,133.60,46.40,5596.00,0.00
215.38291120529175,87.65,139.05,40.95,6128.00,0.00
215.45485019683838,99.62,139.63,40.37,662.00,0.00
215.52788615226746,111.14,135.27,44.73,6062.00,0.00
215.60002517700195,121.05,126.41,53.59,5298.00,0.00
215.67318320274353,128.45,113.73,66.27,4526.00,0.00
215.74366903305054,132.37,99.06,80.94,4148.00,0.00
215.81509709358215,132.66,83.30,96.70,784.00,0.00
215.88794112205505,129.13,68.00,112.00,1746.00,0.00
215.96077227592468,122.34,55.27,124.73,6266.00,0.00
216.03270411491394,112.61,45.69,134.31,4318.00,0.00
216.1050193309784,101.25,40.68,139.32,5298.00,0.00
216.17669200897217,89.43,40.54,139.46,2504.00,0.00
216.24835324287415,77.85,45.38,134.62,3974.00,0.00
216.32039618492126,68.15,54.62,125.38,3322.00,0.00
216.39249920845032,61.11,67.38,112.62,3422.00,0.00
216.4640781879425,57.44,82.40,97.60,5554.00,0.00
216.53606414794922,57.51,98.16,81.84,1484.00,0.00
216.60870814323425,61.38,113.31,66.69,4780.00,0.00
216.68044114112854,68.45,125.77,54.23,6174.00,0.00
216.7526490688324,78.24,134.87,45.13,4790.00,0.00
216.82464623451233,89.86,139.54,40.46,5360.00,0.00
216.897203207016,101.67,139.22,40.78,2848.00,0.00
216.9690911769867,112.99,134.04,45.96,3772.00,0.00
217.04128122329712,122.64,124.32,55.68,2972.00,0.00
217.11333203315735,129.31,111.49,68.51,4224.00,0.00
217.18495225906372,132.71,96.14,83.86,4472.00,0.00
217.25758004188538,132.29,80.38,99.62,1462.00,0.00
217.32983827590942,128.16,65.58,114.42,1576.00,0.00
217.4022181034088,120.73,53.21,126.79,5452.00,0.00
217.47444200515747,110.59,44.40,135.60,3122.00,0.00
217.54586338996887,99.03,40.28,139.72,5514.00,0.00
217.6177463531494,87.22,41.06,138.94,3158.00,0.00
217.69018125534058,75.88,46.79,133.21,3172.00,0.00
217.76217913627625,66.61,56.77,123.23,5062.00,0.00
217.83415603637695,60.15,70.06,109.94,5568.00,0.00
217.90538501739502,57.17,85.33,94.67,3992.00,0.00
217.97813606262207,57.94,101.06,78.94,1560.00,0.00
218.0499882698059,62.40,115.70,64.30,4228.00,0.00
218.1225643157959,70.10,127.77,52.23,5460.00,0.00
218.19468212127686,80.28,136.10,43.90,4834.00,0.00
218.26661610603333,91.92,139.84,40.16,3710.00,0.00
218.33856916427612,103.87,138.62,41.38,918.00,0.00
218.41120839118958,114.94,132.57,47.43,4400.00,0.00
218.4835741519928,124.02,122.28,57.72,5142.00,0.00
218.5556502342224,130.28,108.58,71.42,2550.00,0.00
218.6274073123932,132.92,93.20,86.80,3166.00,0.00
218.69966530799866,131.75,77.29,102.71,554.00,0.00
218.77205300331116,127.01,63.05,116.95,2586.00,0.00
218.84422612190247,119.04,51.27,128.73,2710.00,0.00
218.91636204719543,108.52,43.27,136.73,1428.00,0.00
218.98795700073242,96.96,40.07,139.93,3768.00,0.00
219.05995440483093,84.88,41.81,138.19,3532.00,0.00
219.13192915916443,73.98,48.35,131.65,3850.00,0.00
219.2040512561798,65.27,58.86,121.14,4332.00,0.00
219.27626824378967,59.32,72.80,107.20,4568.00,0.00
219.34761023521423,57.02,88.27,91.73,5260.00,0.00
219.41969633102417,58.50,103.92,76.08,954.00,0.00
219.49224019050598,63.61,118.18,61.82,3756.00,0.00
219.564355134964,71.84,129.64,50.36,5822.00,0.00
219.63645005226135,82.22,137.09,42.91,2306.00,0.00
219.70831322669983,94.16,139.99,40.01,3674.00,0.00
219.78086137771606,106.04,137.84,42.16,3132.00,0.00
219.85336232185364,116.95,130.82,49.18,1672.00,0.00
219.92502212524414,125.42,119.97,60.03,6682.00,0.00
219.99732303619385,131.05,105.81,74.19,3440.00,0.00
220.0690941810608,133.00,90.25,89.75,3268.00,0.00
220.1416540145874,131.17,74.67,105.33,7796.00,0.00
220.2139642238617,125.74,60.61,119.39,2500.00,0.00
220.2859971523285,117.26,49.48,130.52,3620.00,0.00
220.3583381175995,106.56,42.37,137.63,3260.00,0.00
220.4299430847168,94.71,40.00,140.00,4682.00,0.00
220.5021162033081,82.74,42.68,137.32,3562.00,0.00
220.57428312301636,72.28,49.92,130.08,2494.00,0.00
220.64603924751282,63.83,61.40,118.60,5482.00,0.00
220.71858406066895,58.61,75.60,104.40,4942.00,0.00
220.7897012233734,57.01,91.22,88.78,3802.00,0.00
220.86230206489563,59.19,106.73,73.27,6774.00,0.00
220.93414402008057,64.93,120.57,59.43,3294.00,0.00
221.0064570903778,73.66,131.37,48.63,5588.00,0.00
221.07866024971008,84.51,138.06,41.94,3766.00,0.00
221.15044927597046,96.41,139.97,40.03,1726.00,0.00
