Used Foils:,stiff_foils
Waterspeed:,0.0
Frequency:,0.5
Heave Amplitude:,40
Pitch Amplitude:,25
Camber Amplitude,90
Pitch Phase,0
Camber Phase,0
Turn Rate,0
Test Duration, 10

Time,Heave_pos,Pitch_right,Pitch_left,Power_consumption,Noise
31.102354049682617,55.00,90.06,89.94,410.00,0.00
31.1741840839386,56.02,95.61,84.39,940.00,0.00
31.247366905212402,59.02,100.93,79.07,3920.00,0.00
31.319361209869385,63.86,105.69,74.31,2278.00,0.00
31.39063000679016,70.19,109.61,70.39,684.00,0.00
31.462536096572876,77.97,112.62,67.38,792.00,0.00
31.534860134124756,86.52,114.43,65.57,1808.00,0.00
31.606767892837524,95.38,115.00,65.00,5242.00,0.00
31.67916512489319,104.46,114.29,65.71,3792.00,0.00
31.751240968704224,112.94,112.35,67.65,5082.00,0.00
31.823522090911865,120.50,109.26,70.74,5888.00,0.00
31.895570039749146,126.76,105.20,74.80,5098.00,0.00
31.967523097991943,131.40,100.36,79.64,5640.00,0.00
32.038443088531494,134.22,94.92,85.08,812.00,0.00
32.11056327819824,134.99,89.37,90.63,770.00,0.00
32.182214975357056,133.74,83.78,96.22,396.00,0.00
32.2546329498291,130.53,78.51,101.49,830.00,0.00
32.32731819152832,125.58,73.88,106.12,2294.00,0.00
32.39928102493286,118.92,69.96,110.04,2768.00,0.00
32.47163009643555,111.12,67.12,112.88,3150.00,0.00
32.543899059295654,102.50,65.44,114.56,6780.00,0.00
32.61536693572998,93.49,65.02,114.98,4898.00,0.00
32.6873722076416,84.57,65.87,114.13,5986.00,0.00
32.75939702987671,76.17,67.94,112.06,4172.00,0.00
32.83097505569458,68.74,71.14,108.86,5352.00,0.00
32.90300917625427,62.64,75.31,104.69,5796.00,0.00
32.97445797920227,58.19,80.22,99.78,3834.00,0.00
33.046319007873535,55.62,85.62,94.38,2796.00,0.00
33.11820602416992,55.05,91.26,88.74,1196.00,0.00
33.1903760433197,56.52,96.82,83.18,1678.00,0.00
33.26276421546936,59.89,101.97,78.03,1256.00,0.00
33.33429503440857,65.08,106.59,73.41,3182.00,0.00
33.40649104118347,71.90,110.41,69.59,3322.00,0.00
33.478368043899536,79.69,113.10,66.90,718.00,0.00
33.550390005111694,88.37,114.65,65.35,3874.00,0.00
33.6229681968689,97.39,114.96,65.04,5008.00,0.00
33.69499206542969,106.28,113.99,66.01,4430.00,0.00
33.76720404624939,114.60,111.79,68.21,5814.00,0.00
33.839035987854004,122.01,108.44,71.56,2690.00,0.00
33.91177701950073,127.87,104.25,75.75,4336.00,0.00
33.983341217041016,132.19,99.20,80.80,4342.00,0.00
34.0549042224884,134.55,93.76,86.24,1504.00,0.00
34.12691307067871,134.89,88.12,91.88,2606.00,0.00
34.199069023132324,133.19,82.57,97.43,1402.00,0.00
34.27162718772888,129.56,77.41,102.59,1868.00,0.00
34.34335803985596,124.16,72.89,107.11,1192.00,0.00
34.41549205780029,117.28,69.24,110.76,3994.00,0.00
34.48778986930847,109.26,66.64,113.36,4234.00,0.00
34.56029200553894,100.51,65.24,114.76,4780.00,0.00
34.6316020488739,91.49,65.10,114.90,5860.00,0.00
34.70335912704468,82.64,66.22,113.78,5934.00,0.00
34.77569913864136,74.31,68.60,111.40,5344.00,0.00
34.847177028656006,67.25,71.99,108.01,5734.00,0.00
34.9191460609436,61.50,76.34,103.66,3614.00,0.00
34.99069595336914,57.41,81.46,98.54,4038.00,0.00
35.062681913375854,55.32,86.87,93.13,2454.00,0.00
35.13433504104614,55.20,92.51,87.49,964.00,0.00
35.20665907859802,57.12,98.02,81.98,2688.00,0.00
35.27924108505249,60.96,103.13,76.87,1110.00,0.00
35.350714921951294,66.54,107.57,72.43,3382.00,0.00
35.42293095588684,73.57,111.11,68.89,2720.00,0.00
35.49492907524109,81.69,113.57,66.43,1878.00,0.00
35.566941022872925,90.36,114.83,65.17,5784.00,0.00
35.638694047927856,99.51,114.84,65.16,2002.00,0.00
35.71157908439636,108.31,113.57,66.43,4528.00,0.00
35.783857107162476,116.43,111.11,68.89,4686.00,0.00
35.85580921173096,123.46,107.57,72.43,5652.00,0.00
35.928020000457764,129.11,103.06,76.94,5080.00,0.00
35.99958300590515,132.88,98.02,81.98,1402.00,0.00
36.07137894630432,134.80,92.51,87.49,2570.00,0.00
36.142975091934204,134.67,86.79,93.21,354.00,0.00
36.21540689468384,132.55,81.38,98.62,4954.00,0.00
36.28805208206177,128.50,76.34,103.66,3240.00,0.00
36.359522104263306,122.66,71.94,108.06,760.00,0.00
36.432432889938354,115.47,68.52,111.48,3142.00,0.00
36.50436592102051,107.24,66.20,113.80,6436.00,0.00
36.57607316970825,98.39,65.09,114.91,5856.00,0.00
36.647998094558716,89.36,65.25,114.75,6400.00,0.00
36.72006106376648,80.63,66.67,113.33,5170.00,0.00
36.791988134384155,72.62,69.28,110.72,5574.00,0.00
36.86426496505737,65.76,72.94,107.06,6488.00,0.00
36.93582105636597,60.38,77.48,102.52,5396.00,0.00
37.00711989402771,56.77,82.65,97.35,3086.00,0.00
37.0791392326355,55.10,88.20,91.80,2114.00,0.00
37.15050911903381,55.45,93.76,86.24,688.00,0.00
37.22303509712219,57.86,99.28,80.72,1508.00,0.00
37.29527401924133,62.13,104.25,75.75,786.00,0.00
37.3675651550293,67.99,108.44,71.56,4034.00,0.00
37.439208030700684,75.29,111.75,68.25,866.00,0.00
37.51184010505676,83.72,113.99,66.01,2540.00,0.00
37.583576917648315,92.61,114.96,65.04,4182.00,0.00
37.655874252319336,101.51,114.67,65.33,4662.00,0.00
37.7282350063324,110.31,113.10,66.90,5406.00,0.00
37.800355195999146,118.21,110.36,69.64,1760.00,0.00
37.87240719795227,124.92,106.59,73.41,5852.00,0.00
37.94429302215576,130.11,101.97,78.03,5200.00,0.00
38.01600694656372,133.55,96.67,83.33,1110.00,0.00
38.08788800239563,134.96,91.18,88.82,1340.00,0.00
38.15973210334778,134.36,85.55,94.45,462.00,0.00
38.23128008842468,131.76,80.14,99.86,796.00,0.00
38.304354190826416,127.29,75.24,104.76,2520.00,0.00
38.37653684616089,121.17,71.09,108.91,1638.00,0.00
38.44841504096985,113.61,67.87,112.13,5072.00,0.00
38.520769119262695,105.31,65.85,114.15,3342.00,0.00
38.592050075531006,96.38,65.01,114.99,5984.00,0.00
38.66460704803467,87.26,65.47,114.53,5442.00,0.00
38.73654317855835,78.65,67.18,112.82,5852.00,0.00
38.80854105949402,70.88,70.06,109.94,5312.00,0.00
38.88057994842529,64.34,73.94,106.06,5456.00,0.00
38.952831983566284,59.36,78.65,101.35,5724.00,0.00
39.02396607398987,56.23,83.86,96.14,2638.00,0.00
39.09585213661194,55.01,89.53,90.47,2284.00,0.00
39.167190074920654,55.86,95.15,84.85,960.00,0.00
39.240527868270874,58.65,100.43,79.57,2216.00,0.00
39.31211304664612,63.32,105.26,74.74,1216.00,0.00
39.384506940841675,69.70,109.36,70.64,2424.00,0.00
39.45607089996338,77.18,112.38,67.62,3096.00,0.00
39.52837896347046,85.66,114.31,65.69,4270.00,0.00
39.59980821609497,94.75,115.00,65.00,344.00,0.00
39.67304301261902,103.60,114.41,65.59,4046.00,0.00
39.745521068573,112.14,112.59,67.41,5588.00,0.00
39.817436933517456,119.91,109.56,70.44,5266.00,0.00
39.88978695869446,126.37,105.51,74.49,6122.00,0.00
39.96174907684326,131.09,100.79,79.21,2818.00,0.00
40.03355598449707,134.04,95.45,84.55,2022.00,0.00
