Used Foils:,stiff_foils
Waterspeed:,0.0
Frequency:,0.5
Heave Amplitude:,40
Pitch Amplitude:,35
Camber Amplitude,90
Pitch Phase,0
Camber Phase,0
Turn Rate,0
Test Duration, 10

Time,Heave_pos,Pitch_right,Pitch_left,Power_consumption,Noise
69.127938747406,55.00,90.09,89.91,344.00,0.00
69.199777841568,56.05,97.96,82.04,3454.00,0.00
69.27214074134827,59.02,105.30,74.70,3460.00,0.00
69.34413886070251,63.86,111.97,68.03,2028.00,0.00
69.41626286506653,70.38,117.59,62.41,2278.00,0.00
69.48738169670105,77.97,121.67,58.33,884.00,0.00
69.56003999710083,86.52,124.20,55.80,2496.00,0.00
69.63198184967041,95.63,125.00,55.00,1946.00,0.00
69.70472693443298,104.46,124.01,55.99,2592.00,0.00
69.77656579017639,112.94,121.28,58.72,3680.00,0.00
69.84912085533142,120.59,116.90,63.10,1056.00,0.00
69.92082190513611,126.76,111.28,68.72,3166.00,0.00
69.9935200214386,131.46,104.40,75.60,4624.00,0.00
70.06485199928284,134.22,96.88,83.12,1370.00,0.00
70.13656783103943,134.98,89.01,90.99,1452.00,0.00
70.2080910205841,133.74,81.30,98.70,612.00,0.00
70.28088688850403,130.47,73.82,106.18,1990.00,0.00
70.35321497917175,125.42,67.27,112.73,5938.00,0.00
70.42548990249634,118.82,61.88,118.12,4082.00,0.00
70.49716901779175,111.00,57.92,122.08,1632.00,0.00
70.56941795349121,102.25,55.58,124.42,4158.00,0.00
70.64115381240845,93.37,55.03,124.97,4286.00,0.00
70.7130959033966,84.45,56.24,123.76,4542.00,0.00
70.785001039505,76.06,59.17,120.83,5010.00,0.00
70.8572769165039,68.64,63.67,116.33,4962.00,0.00
70.92971396446228,62.57,69.52,110.48,3352.00,0.00
71.0009560585022,58.09,76.50,103.50,2706.00,0.00
71.07203578948975,55.60,83.98,96.02,5102.00,0.00
71.14414381980896,55.06,91.87,88.13,1356.00,0.00
71.21579384803772,56.55,99.66,80.34,1304.00,0.00
71.28859877586365,60.01,106.96,73.04,1268.00,0.00
71.3622088432312,65.25,113.39,66.61,2736.00,0.00
71.43255090713501,72.00,118.64,61.36,3630.00,0.00
71.50496792793274,79.93,122.42,57.58,2166.00,0.00
71.57684373855591,88.62,124.55,55.45,3952.00,0.00
71.64907884597778,97.64,124.92,55.08,2470.00,0.00
71.72146272659302,106.52,123.52,56.48,3582.00,0.00
71.79505109786987,114.82,120.40,59.60,3444.00,0.00
71.86601090431213,122.11,115.74,64.26,3732.00,0.00
71.93781208992004,128.08,109.67,70.33,2788.00,0.00
72.0111939907074,132.28,102.68,77.32,1282.00,0.00
72.08196997642517,134.58,95.04,84.96,2782.00,0.00
72.15331888198853,134.87,87.14,92.86,682.00,0.00
72.22627210617065,133.08,79.29,100.71,3892.00,0.00
72.29829382896423,129.43,72.18,107.82,2280.00,0.00
72.37088012695312,123.90,65.80,114.20,1534.00,0.00
72.44350910186768,116.96,60.75,119.25,4060.00,0.00
72.51532292366028,109.02,57.22,122.78,4364.00,0.00
72.58722496032715,100.14,55.29,124.71,3890.00,0.00
72.65867304801941,91.11,55.17,124.83,5416.00,0.00
72.73091697692871,82.28,56.82,123.18,2670.00,0.00
72.80282783508301,74.10,60.16,119.84,2988.00,0.00
72.87491106987,66.98,65.02,114.98,5472.00,0.00
72.94711208343506,61.29,71.15,108.85,2950.00,0.00
73.01907110214233,57.32,78.25,101.75,2494.00,0.00
73.09028315544128,55.27,85.94,94.06,1294.00,0.00
73.16181683540344,55.24,93.84,86.16,1868.00,0.00
73.23416495323181,57.24,101.54,78.46,5580.00,0.00
73.30643200874329,61.16,108.66,71.34,2152.00,0.00
73.38079071044922,66.80,114.83,65.17,2864.00,0.00
73.45048880577087,73.89,119.73,60.27,1654.00,0.00
73.52255487442017,82.04,123.11,56.89,4700.00,0.00
73.59539890289307,90.86,124.81,55.19,1962.00,0.00
73.66677474975586,99.89,124.74,55.26,2602.00,0.00
73.73935604095459,108.67,122.89,57.11,3394.00,0.00
73.81169700622559,116.86,119.31,60.69,684.00,0.00
73.88375186920166,123.73,114.36,65.64,4054.00,0.00
73.9560227394104,129.30,108.01,71.99,3084.00,0.00
74.02806901931763,133.04,100.82,79.18,3756.00,0.00
74.09969592094421,134.83,93.18,86.82,3306.00,0.00
74.17144680023193,134.62,85.18,94.82,2470.00,0.00
74.24412178993225,132.37,77.53,102.47,3650.00,0.00
74.31655788421631,128.22,70.51,109.49,2496.00,0.00
74.38847708702087,122.38,64.49,115.51,3470.00,0.00
74.46051478385925,115.04,59.71,120.29,4332.00,0.00
74.53300213813782,106.76,56.55,123.45,4306.00,0.00
74.60448598861694,98.01,55.10,124.90,4768.00,0.00
74.67727589607239,88.87,55.41,124.59,5262.00,0.00
74.74858283996582,80.16,57.50,122.50,4516.00,0.00
74.8203239440918,72.21,61.24,118.76,3886.00,0.00
74.89296889305115,65.41,66.44,113.56,3594.00,0.00
74.96513080596924,60.07,72.95,107.05,4390.00,0.00
75.03621792793274,56.62,80.13,99.87,3434.00,0.00
75.10859608650208,55.07,87.91,92.09,2002.00,0.00
75.17996096611023,55.55,95.80,84.20,1464.00,0.00
75.25230503082275,58.04,103.39,76.61,1294.00,0.00
75.3242998123169,62.42,110.30,69.70,2706.00,0.00
75.39752888679504,68.45,116.18,63.82,2536.00,0.00
75.46857690811157,75.95,120.78,59.22,2760.00,0.00
75.54070687294006,84.20,123.70,56.30,3892.00,0.00
75.61238193511963,93.12,124.96,55.04,534.00,0.00
75.68535900115967,102.25,124.42,55.58,2506.00,0.00
75.75738668441772,110.77,122.16,57.84,3972.00,0.00
75.83036184310913,118.71,118.19,61.81,2130.00,0.00
75.90187096595764,125.33,112.81,67.19,3414.00,0.00
75.97434592247009,130.41,106.28,73.72,1128.00,0.00
76.04605913162231,133.68,98.92,81.08,1546.00,0.00
76.11784291267395,134.98,90.99,89.01,1150.00,0.00
76.18930578231812,134.24,83.23,96.77,874.00,0.00
76.26274490356445,131.51,75.70,104.30,1510.00,0.00
76.33491373062134,126.84,68.81,111.19,3712.00,0.00
76.40679693222046,120.69,63.17,116.83,4810.00,0.00
76.47888493537903,113.05,58.77,121.23,5266.00,0.00
76.55114889144897,104.58,56.02,123.98,4374.00,0.00
76.62238907814026,95.63,55.00,125.00,2526.00,0.00
76.69568705558777,86.64,55.77,124.23,4598.00,0.00
76.76685500144958,78.08,58.28,121.72,4626.00,0.00
76.83903193473816,70.29,62.48,117.52,5046.00,0.00
76.9111258983612,63.94,67.95,112.05,4168.00,0.00
76.98320174217224,59.08,74.60,105.40,3666.00,0.00
77.05461382865906,56.02,82.15,97.85,4020.00,0.00
77.12635779380798,55.00,89.89,90.11,2156.00,0.00
77.19829487800598,55.99,97.74,82.26,2398.00,0.00
77.27045202255249,59.02,105.30,74.70,2084.00,0.00
77.3425178527832,63.78,111.88,68.12,3398.00,0.00
77.4148178100586,70.19,117.45,62.55,3296.00,0.00
77.48643803596497,77.97,121.67,58.33,852.00,0.00
77.55943298339844,86.40,124.18,55.82,2360.00,0.00
77.63137698173523,95.38,125.00,55.00,2012.00,0.00
77.70400786399841,104.46,124.01,55.99,3284.00,0.00
77.77600073814392,112.94,121.28,58.72,3014.00,0.00
77.84842872619629,120.50,116.97,63.03,1010.00,0.00
77.92069101333618,126.76,111.28,68.72,3202.00,0.00
77.99255585670471,131.46,104.40,75.60,1406.00,0.00
78.06425189971924,134.19,96.99,83.01,1990.00,0.00
78.1355299949646,134.98,89.01,90.99,944.00,0.00
78.20831894874573,133.71,81.19,98.81,1504.00,0.00
78.28131103515625,130.53,73.91,106.09,2406.00,0.00
78.35294485092163,125.42,67.27,112.73,2304.00,0.00
78.42552876472473,118.82,61.88,118.12,3418.00,0.00
78.49791693687439,111.00,57.92,122.08,1010.00,0.00
78.56970882415771,102.37,55.60,124.40,4446.00,0.00
78.64124870300293,93.24,55.03,124.97,4578.00,0.00
78.7136299610138,84.32,56.27,123.73,944.00,0.00
78.78543901443481,75.95,59.22,120.78,5514.00,0.00
78.85742974281311,68.55,63.75,116.25,4958.00,0.00
78.92963194847107,62.49,69.61,110.39,3458.00,0.00
79.00168204307556,58.09,76.50,103.50,1878.00,0.00
79.07292985916138,55.57,84.09,95.91,2910.00,0.00
79.1446259021759,55.06,91.98,88.02,1514.00,0.00
79.21661281585693,56.59,99.76,80.24,1616.00,0.00
79.28844809532166,60.07,107.05,72.95,986.00,0.00
79.3608558177948,65.33,113.47,66.53,2714.00,0.00
79.43331480026245,72.00,118.64,61.36,1022.00,0.00
79.50553393363953,80.04,122.46,57.54,3952.00,0.00
79.57793283462524,88.74,124.57,55.43,1746.00,0.00
79.649484872818,97.64,124.92,55.08,3280.00,0.00
79.722336769104,106.64,123.48,56.52,2854.00,0.00
79.79411482810974,115.04,120.29,59.71,714.00,0.00
79.86686182022095,122.29,115.59,64.41,3834.00,0.00
79.9390799999237,128.15,109.58,70.42,3280.00,0.00
80.01141691207886,132.33,102.58,77.42,2890.00,0.00
80.08276391029358,134.62,94.82,85.18,1684.00,0.00
80.15462398529053,134.86,87.03,92.97,2242.00,0.00
80.22737789154053,133.08,79.29,100.71,4182.00,0.00
80.29940390586853,129.30,71.99,108.01,2212.00,0.00
80.37200903892517,123.90,65.80,114.20,3260.00,0.00
80.44374108314514,116.86,60.69,119.31,3988.00,0.00
80.51614594459534,108.79,57.14,122.86,3864.00,0.00
80.58811783790588,100.01,55.28,124.72,4500.00,0.00
80.65975999832153,90.99,55.18,124.82,5122.00,0.00
80.73192405700684,82.04,56.89,123.11,1068.00,0.00
80.80378675460815,73.89,60.27,119.73,5154.00,0.00
80.87606573104858,66.89,65.10,114.90,5842.00,0.00
80.94868206977844,61.16,71.34,108.66,3602.00,0.00
81.02008509635925,57.24,78.46,101.54,2248.00,0.00
81.09166383743286,55.26,86.05,93.95,1852.00,0.00
