Used Foils:,stiff_foils
Waterspeed:,0.0
Frequency:,0.8
Heave Amplitude:,40
Pitch Amplitude:,60
Camber Amplitude,90
Pitch Phase,0
Camber Phase,0
Turn Rate,0
Test Duration,10

Time,Heave_pos,Pitch_right,Pitch_left,Power_consumption,Noise
91.30636405944824,134.70,84.47,95.53,0.00,0.00
91.37811017036438,133.16,76.53,103.47,0.00,0.00
91.44971799850464,130.43,69.12,110.88,0.00,0.00
91.52134704589844,126.51,62.29,117.71,0.00,0.00
91.59315299987793,121.57,56.36,123.64,0.00,0.00
91.66506791114807,115.84,51.59,128.41,0.00,0.00
91.73634600639343,109.35,48.00,132.00,0.00,0.00
91.80812311172485,102.40,45.78,134.22,0.00,0.00
91.87907695770264,95.30,45.00,135.00,0.00,0.00
91.95094704627991,88.10,45.67,134.33,0.00,0.00
92.02210092544556,81.21,47.76,132.24,0.00,0.00
92.09369587898254,74.77,51.18,128.82,0.00,0.00
92.16542506217957,68.89,55.91,124.09,0.00,0.00
92.23682713508606,63.86,61.75,118.25,0.00,0.00
92.30842399597168,59.90,68.42,111.58,0.00,0.00
92.37971186637878,57.02,75.88,104.12,4.00,0.00
93.45151901245117,55.00,90.11,89.89,0.00,0.00
93.52370500564575,57.66,111.53,68.47,0.00,0.00
93.59493398666382,64.90,129.51,50.49,4.00,0.00
93.6665780544281,76.17,142.94,37.06,0.00,0.00
93.73783898353577,89.89,149.51,30.49,0.00,0.00
93.80988788604736,104.26,148.37,31.63,4.00,0.00
93.88147282600403,117.28,139.84,40.16,0.00,0.00
93.95328187942505,127.60,124.78,55.22,4.00,0.00
94.02451181411743,133.64,105.50,74.50,0.00,0.00
94.09556198120117,134.82,84.28,95.72,0.00,0.00
94.16757392883301,130.89,63.50,116.50,0.00,0.00
94.23924016952515,122.31,46.16,133.84,0.00,0.00
94.31090021133423,110.38,34.61,145.39,0.00,0.00
94.38189721107483,96.31,30.03,149.97,0.00,0.00
94.45314002037048,82.07,33.22,146.78,0.00,0.00
94.52486801147461,69.81,43.39,136.61,0.00,0.00
94.59620404243469,60.44,59.78,120.22,0.00,0.00
94.66752815246582,55.55,80.09,99.91,0.00,0.00
94.73930597305298,55.73,101.39,78.61,0.00,0.00
94.81055808067322,60.96,121.51,58.49,0.00,0.00
94.88223814964294,70.44,137.36,42.64,0.00,0.00
94.9537079334259,83.02,147.25,32.75,4.00,0.00
95.02527189254761,97.31,149.90,30.10,0.00,0.00
95.0972068309784,111.30,144.79,35.21,0.00,0.00
95.16900181770325,123.03,132.80,47.20,0.00,0.00
95.2406370639801,131.32,115.14,64.86,0.00,0.00
95.31160306930542,134.90,94.22,85.78,0.00,0.00
95.38363409042358,133.37,73.04,106.96,0.00,0.00
95.45542693138123,126.88,53.76,126.24,0.00,0.00
95.52694582939148,116.26,39.18,140.82,0.00,0.00
95.59877705574036,103.28,31.30,148.70,0.00,0.00
95.67001700401306,88.89,30.70,149.30,0.00,0.00
95.74120807647705,75.29,37.79,142.21,0.00,0.00
95.8129529953003,64.37,51.41,128.59,0.00,0.00
95.88464093208313,57.25,70.17,109.83,0.00,0.00
95.95510482788086,55.01,91.51,88.49,0.00,0.00
96.02732610702515,57.81,112.09,67.91,0.00,0.00
96.09876704216003,65.43,130.41,49.59,0.00,0.00
96.17027592658997,76.89,143.49,36.51,0.00,0.00
96.2416307926178,90.69,149.65,30.35,4.00,0.00
96.31429100036621,104.85,148.15,31.85,0.00,0.00
96.38570594787598,117.94,139.15,40.85,0.00,0.00
96.45746183395386,128.05,123.79,56.21,0.00,0.00
96.52863597869873,133.84,104.34,75.66,0.00,0.00
96.59974384307861,134.71,82.78,97.22,0.00,0.00
96.67199921607971,130.53,62.43,117.57,0.00,0.00
96.74379205703735,121.86,45.55,134.45,4.00,0.00
96.8153030872345,109.63,34.16,145.84,0.00,0.00
96.88620519638062,95.50,30.00,150.00,0.00,0.00
96.95732688903809,81.50,33.52,146.48,0.00,0.00
97.02909994125366,69.04,44.35,135.65,0.00,0.00
97.10086488723755,59.95,61.09,118.91,0.00,0.00
97.17188382148743,55.42,81.28,98.72,0.00,0.00
97.24379682540894,55.89,102.57,77.43,0.00,0.00
97.31520080566406,61.39,122.53,57.47,0.00,0.00
97.38648581504822,71.08,138.09,41.91,0.00,0.00
97.4578468799591,83.99,147.68,32.32,4.00,0.00
97.52940201759338,98.31,149.79,30.21,0.00,0.00
97.60196280479431,112.03,144.29,35.71,0.00,0.00
97.67351007461548,123.74,131.73,48.27,0.00,0.00
97.74509882926941,131.73,113.76,66.24,4.00,0.00
97.81612396240234,134.95,93.01,86.99,0.00,0.00
97.88857316970825,133.07,71.60,108.40,0.00,0.00
97.95987701416016,126.39,52.81,127.19,0.00,0.00
98.03156590461731,115.75,38.70,141.30,0.00,0.00
98.10322594642639,102.30,31.01,148.99,4.00,0.00
98.17424082756042,87.90,30.95,149.05,0.00,0.00
98.24590301513672,74.60,38.39,141.61,4.00,0.00
98.3172378540039,63.74,52.57,127.43,0.00,0.00
98.38890790939331,56.93,71.60,108.40,0.00,0.00
98.4599220752716,55.05,93.01,86.99,4.00,0.00
98.53206396102905,58.19,113.48,66.52,4.00,0.00
98.60338091850281,66.12,131.51,48.49,0.00,0.00
98.67459177970886,77.79,144.16,35.84,0.00,0.00
98.74636888504028,91.49,149.77,30.23,0.00,0.00
98.81846284866333,105.82,147.76,32.24,0.00,0.00
98.89016580581665,118.75,138.27,41.73,4.00,0.00
98.96202397346497,128.50,122.78,57.22,0.00,0.00
99.03336477279663,134.07,102.87,77.13,0.00,0.00
99.10495090484619,134.58,81.28,98.72,0.00,0.00
99.17696404457092,130.05,61.09,118.91,4.00,0.00
99.24847292900085,120.96,44.35,135.65,0.00,0.00
99.3198812007904,108.69,33.62,146.38,0.00,0.00
99.39106011390686,94.70,30.00,150.00,0.00,0.00
99.46259808540344,80.56,34.05,145.95,0.00,0.00
99.53423595428467,68.28,45.34,134.66,4.00,0.00
99.6060221195221,59.57,62.16,117.84,0.00,0.00
99.67693305015564,55.29,82.78,97.22,0.00,0.00
99.74854588508606,56.16,104.34,75.66,0.00,0.00
99.82031083106995,61.83,123.54,56.46,0.00,0.00
99.89172291755676,71.90,138.98,41.02,0.00,0.00
99.9633719921112,84.96,148.08,31.92,0.00,0.00
100.03468799591064,99.11,149.68,30.32,0.00,0.00
100.10714507102966,112.94,143.63,36.37,0.00,0.00
100.17882299423218,124.43,130.63,49.37,0.00,0.00
100.25051784515381,132.04,112.65,67.35,0.00,0.00
100.32151484489441,134.99,91.51,88.49,0.00,0.00
100.39349102973938,132.75,70.17,109.83,0.00,0.00
100.46525502204895,125.76,51.64,128.36,0.00,0.00
100.5367500782013,114.88,37.94,142.06,0.00,0.00
100.60815501213074,101.31,30.75,149.25,0.00,0.00
100.67909383773804,86.91,31.24,148.76,0.00,0.00
100.75082588195801,73.74,39.18,140.82,0.00,0.00
100.82216095924377,63.12,53.76,126.24,0.00,0.00
100.89406085014343,56.63,73.04,106.96,0.00,0.00
100.96492195129395,55.10,94.22,85.78,0.00,0.00
101.03658199310303,58.68,115.14,64.86,0.00,0.00
101.1084520816803,66.82,132.59,47.41,0.00,0.00
101.17993688583374,78.52,144.67,35.33,4.00,0.00
101.25144791603088,92.49,149.88,30.12,4.00,0.00
