Used Foils:,wide_foils_off
Waterspeed:,0.0
Frequency:,0.8
Heave Amplitude:,38
Pitch Amplitude:,25
Camber Amplitude,90
Pitch Phase,0
Camber Phase,0
Turn Rate,0
Test Duration,10

Time,Heave_pos,Pitch_right,Pitch_left,Power_consumption,Noise
628.4736239910126,57.00,90.00,90.00,132.00,0.00
628.5460829734802,59.53,98.97,81.03,5024.00,0.00
628.6183938980103,66.53,106.56,73.44,5810.00,0.00
628.6903829574585,77.28,112.12,67.88,6358.00,0.00
628.7624609470367,90.52,114.83,65.17,7310.00,0.00
628.8347840309143,103.99,114.29,65.71,5226.00,0.00
628.9067709445953,116.48,110.62,69.38,7448.00,0.00
628.9792728424072,126.29,104.18,75.82,7910.00,0.00
629.0505337715149,131.90,95.97,84.03,8142.00,0.00
629.1224880218506,132.75,87.12,92.88,7218.00,0.00
629.1950399875641,128.66,78.40,101.60,1838.00,0.00
629.2670640945435,120.24,71.31,108.69,6540.00,0.00
629.3392419815063,108.72,66.69,113.31,6718.00,0.00
629.4105470180511,95.10,65.00,115.00,9428.00,0.00
629.4828848838806,81.63,66.60,113.40,8366.00,0.00
629.5552971363068,70.05,71.14,108.86,10076.00,0.00
629.6272449493408,61.43,78.29,101.71,11096.00,0.00
629.6989288330078,57.30,86.87,93.13,10834.00,0.00
629.7709958553314,58.06,95.85,84.15,10020.00,0.00
629.8429679870605,63.60,104.08,75.92,5152.00,0.00
629.9150238037109,73.21,110.48,69.52,5922.00,0.00
629.9870328903198,85.46,114.20,65.80,5102.00,0.00
630.0589640140533,99.29,114.84,65.16,7988.00,0.00
630.1316349506378,112.38,112.23,67.77,6124.00,0.00
630.2037630081177,123.35,106.65,73.35,8952.00,0.00
630.2757420539856,130.40,99.09,80.91,10580.00,0.00
630.347489118576,133.00,90.13,89.87,9736.00,0.00
630.4194059371948,130.61,81.27,98.73,3576.00,0.00
630.4922859668732,123.72,73.63,106.37,5544.00,0.00
630.5641858577728,112.89,67.94,112.06,7258.00,0.00
630.6358299255371,99.86,65.21,114.79,8552.00,0.00
630.7078211307526,86.20,65.68,114.32,9068.00,0.00
630.7798409461975,73.68,69.31,110.69,9542.00,0.00
630.8522140979767,63.92,75.61,104.39,9828.00,0.00
630.924195766449,58.19,83.78,96.22,10230.00,0.00
630.9956748485565,57.23,92.76,87.24,8874.00,0.00
631.067953824997,61.16,101.38,78.62,3466.00,0.00
631.1399700641632,69.62,108.61,71.39,7048.00,0.00
631.2119591236115,81.10,113.27,66.73,7772.00,0.00
631.284383058548,94.52,115.00,65.00,9578.00,0.00
631.3570628166199,108.19,113.45,66.55,6056.00,0.00
631.4293539524078,119.81,108.94,71.06,8808.00,0.00
631.5015118122101,128.48,101.82,78.18,9264.00,0.00
631.5736358165741,132.68,93.26,86.74,10482.00,0.00
631.6450438499451,131.99,84.27,95.73,7700.00,0.00
631.7176339626312,126.51,76.03,103.97,3260.00,0.00
631.7898540496826,116.95,69.59,110.41,6134.00,0.00
631.8618597984314,104.54,65.80,114.20,5862.00,0.00
631.9336740970612,90.90,65.15,114.85,8680.00,0.00
632.0054008960724,77.62,67.77,112.23,9438.00,0.00
632.0774519443512,66.91,73.16,106.84,9824.00,0.00
632.1499049663544,59.67,80.80,99.20,10944.00,0.00
632.2214620113373,57.00,89.75,90.25,10672.00,0.00
632.2929308414459,59.33,98.62,81.38,5206.00,0.00
632.365443944931,66.15,106.27,73.73,3454.00,0.00
632.4380171298981,76.94,112.00,68.00,3152.00,0.00
632.5097568035126,89.95,114.78,65.22,8504.00,0.00
632.582309961319,103.43,114.38,65.62,8274.00,0.00
632.6544630527496,116.16,110.76,69.24,7452.00,0.00
632.726548910141,125.97,104.49,75.51,9752.00,0.00
632.798828125,131.76,96.34,83.66,10444.00,0.00
632.870677947998,132.79,87.37,92.63,8578.00,0.00
632.9430179595947,128.84,78.62,101.38,3666.00,0.00
633.0150008201599,120.66,71.56,108.44,6576.00,0.00
633.087070941925,108.90,66.73,113.27,8150.00,0.00
633.1587028503418,95.48,65.00,115.00,8038.00,0.00
633.2307629585266,81.99,66.51,113.49,7582.00,0.00
633.3030300140381,70.19,71.06,108.94,9402.00,0.00
633.3757808208466,61.61,78.07,101.93,10116.00,0.00
633.4474020004272,57.32,86.74,93.26,10610.00,0.00
633.5186619758606,57.97,95.61,84.39,8234.00,0.00
633.5910887718201,63.38,103.87,76.13,3686.00,0.00
633.6634669303894,72.90,110.34,69.66,7022.00,0.00
633.7352240085602,85.27,114.17,65.83,7982.00,0.00
633.8072431087494,98.91,114.87,65.13,9480.00,0.00
633.8802559375763,112.21,112.29,67.71,5630.00,0.00
633.9522778987885,122.96,106.93,73.07,9594.00,0.00
634.0247218608856,130.33,99.20,80.80,10154.00,0.00
634.0968787670135,133.00,90.38,89.62,10472.00,0.00
634.168210029602,130.74,81.50,98.50,5768.00,0.00
634.2403540611267,123.85,73.73,106.27,5840.00,0.00
634.3126158714294,113.22,68.06,111.94,5860.00,0.00
634.3846409320831,100.05,65.22,114.78,9854.00,0.00
634.4566159248352,86.57,65.62,114.38,8152.00,0.00
634.5286321640015,73.84,69.24,110.76,9588.00,0.00
634.6015028953552,64.03,75.51,104.49,10154.00,0.00
634.6731998920441,58.24,83.66,96.34,11092.00,0.00
634.7450361251831,57.21,92.63,87.37,10708.00,0.00
634.8171148300171,61.08,101.27,78.73,3496.00,0.00
634.8891310691833,69.34,108.44,71.56,7328.00,0.00
634.9611320495605,80.92,113.22,66.78,7474.00,0.00
635.0331559181213,94.33,115.00,65.00,9348.00,0.00
635.105761051178,107.83,113.53,66.47,7346.00,0.00
635.177572965622,119.66,109.02,70.98,8370.00,0.00
635.250501871109,128.39,101.93,78.07,10404.00,0.00
635.3219289779663,132.65,93.38,86.62,9448.00,0.00
635.3942799568176,132.03,84.39,95.61,7026.00,0.00
635.4667818546295,126.62,76.13,103.87,6112.00,0.00
635.5388238430023,116.95,69.59,110.41,4564.00,0.00
635.6111130714417,104.73,65.83,114.17,5642.00,0.00
635.6827080249786,90.90,65.15,114.85,9012.00,0.00
635.7545840740204,77.79,67.71,112.29,8034.00,0.00
635.8272037506104,67.04,73.07,106.93,10594.00,0.00
635.898432970047,59.67,80.80,99.20,9630.00,0.00
635.9711229801178,57.00,89.62,90.38,10634.00,0.00
636.0424289703369,59.20,98.38,81.62,7812.00,0.00
636.1147367954254,66.15,106.27,73.73,4064.00,0.00
636.1867988109589,76.78,111.94,68.06,6448.00,0.00
636.2589681148529,89.57,114.74,65.26,5600.00,0.00
636.3311450481415,103.43,114.38,65.62,7372.00,0.00
636.4035120010376,116.00,110.83,69.17,7292.00,0.00
636.4756190776825,125.97,104.49,75.51,8786.00,0.00
636.5483820438385,131.71,96.46,83.54,11640.00,0.00
636.6198000907898,132.79,87.37,92.63,7998.00,0.00
636.6920919418335,128.92,78.73,101.27,3506.00,0.00
636.7644419670105,120.66,71.56,108.44,9392.00,0.00
636.8366129398346,109.08,66.78,113.22,6976.00,0.00
636.9082069396973,95.48,65.00,115.00,9394.00,0.00
636.9803619384766,82.17,66.47,113.53,8162.00,0.00
637.052757024765,70.34,70.98,109.02,9818.00,0.00
637.125067949295,61.61,78.07,101.93,10620.00,0.00
637.1963939666748,57.38,86.49,93.51,10636.00,0.00
637.2679269313812,57.97,95.61,84.39,9486.00,0.00
637.3403100967407,63.38,103.87,76.13,1996.00,0.00
637.4126169681549,72.90,110.34,69.66,5200.00,0.00
