Used Foils:,stiff_foils
Waterspeed:,0.0
Frequency:,0.5
Heave Amplitude:,40
Pitch Amplitude:,50
Camber Amplitude,90
Pitch Phase,0
Camber Phase,0
Turn Rate,0
Test Duration, 10

Time,Heave_pos,Pitch_right,Pitch_left,Power_consumption,Noise
108.16340684890747,55.00,90.14,89.86,344.00,0.00
108.23603796958923,56.05,101.37,78.63,3696.00,0.00
108.30836987495422,59.02,111.86,68.14,4948.00,0.00
108.38002109527588,63.94,121.51,58.49,2042.00,0.00
108.45202898979187,70.38,129.41,50.59,1898.00,0.00
108.52322292327881,77.97,135.24,44.76,760.00,0.00
108.59587597846985,86.52,138.86,41.14,2428.00,0.00
108.66769099235535,95.63,139.99,40.01,2940.00,0.00
108.74072408676147,104.46,138.58,41.42,1956.00,0.00
108.81263089179993,112.94,134.69,45.31,3556.00,0.00
108.8845100402832,120.59,128.43,51.57,1380.00,0.00
108.95674204826355,126.76,120.40,59.60,2262.00,0.00
109.0289077758789,131.46,110.58,69.42,4906.00,0.00
109.10022592544556,134.22,99.83,80.17,1930.00,0.00
109.1722309589386,134.99,88.74,91.26,3824.00,0.00
109.24491500854492,133.71,77.41,102.59,1550.00,0.00
109.31695175170898,130.47,66.88,113.12,2140.00,0.00
109.38880801200867,125.33,57.41,122.59,3618.00,0.00
109.46080994606018,118.82,49.83,130.17,3346.00,0.00
109.53330588340759,111.00,44.17,135.83,2352.00,0.00
109.60526180267334,102.25,40.83,139.17,3086.00,0.00
109.67666482925415,93.37,40.04,139.96,3962.00,0.00
109.74913692474365,84.45,41.77,138.23,3866.00,0.00
109.8211579322815,75.95,46.03,133.97,2098.00,0.00
109.89313173294067,68.64,52.39,127.61,4618.00,0.00
109.96512699127197,62.57,60.74,119.26,4008.00,0.00
110.03713488578796,58.09,70.72,109.28,2782.00,0.00
110.10838484764099,55.60,81.40,98.60,4358.00,0.00
110.18040990829468,55.06,92.67,87.33,1628.00,0.00
110.25278091430664,56.59,103.95,76.05,2418.00,0.00
110.32471895217896,60.01,114.23,65.77,5270.00,0.00
110.39691185951233,65.25,123.42,56.58,2638.00,0.00
110.46873784065247,72.10,131.00,49.00,2624.00,0.00
110.54077911376953,80.04,136.37,43.63,2160.00,0.00
110.61286091804504,88.62,139.36,40.64,3322.00,0.00
110.6845920085907,97.76,139.88,40.12,472.00,0.00
110.75756883621216,106.64,137.84,42.16,3450.00,0.00
110.82961583137512,114.82,133.43,46.57,3194.00,0.00
110.90205097198486,122.20,126.66,53.34,1010.00,0.00
110.97377014160156,128.08,118.10,61.90,5614.00,0.00
111.04623794555664,132.28,108.11,71.89,2670.00,0.00
111.11798787117004,134.58,97.20,82.80,3958.00,0.00
111.19016885757446,134.86,85.76,94.24,2198.00,0.00
111.26270985603333,133.12,74.85,105.15,1996.00,0.00
111.33467984199524,129.37,64.41,115.59,1714.00,0.00
111.40707278251648,123.90,55.43,124.57,5066.00,0.00
111.47904586791992,116.86,48.12,131.88,3398.00,0.00
111.55107378959656,108.90,43.12,136.88,4752.00,0.00
111.62339210510254,100.14,40.41,139.59,3168.00,0.00
111.69471383094788,90.99,40.25,139.75,4354.00,0.00
111.767098903656,82.28,42.59,137.41,2726.00,0.00
111.83909201622009,73.99,47.45,132.55,4418.00,0.00
111.9111099243164,66.89,54.42,125.58,4696.00,0.00
111.983158826828,61.29,63.08,116.92,3086.00,0.00
112.05510997772217,57.28,73.36,106.64,4018.00,0.00
112.12651705741882,55.26,84.36,95.64,3620.00,0.00
112.19853401184082,55.24,95.49,84.51,1828.00,0.00
112.27131295204163,57.28,106.64,73.36,4718.00,0.00
112.34321784973145,61.23,116.79,63.21,3828.00,0.00
112.41496682167053,66.80,125.47,54.53,2366.00,0.00
112.486891746521,73.99,132.55,47.45,4250.00,0.00
112.55886483192444,82.16,137.35,42.65,2822.00,0.00
112.63107681274414,90.99,139.75,40.25,2144.00,0.00
112.70308303833008,99.89,139.63,40.37,1556.00,0.00
112.77587580680847,108.79,136.94,43.06,2884.00,0.00
112.84816598892212,116.86,131.88,48.12,4654.00,0.00
112.9201979637146,123.81,124.68,55.32,3284.00,0.00
112.99346995353699,129.30,115.72,64.28,4778.00,0.00
113.06460404396057,133.08,105.30,74.70,2768.00,0.00
113.13628506660461,134.85,94.39,85.61,4716.00,0.00
113.20862293243408,134.60,82.95,97.05,2378.00,0.00
113.28122997283936,132.33,72.03,107.97,3122.00,0.00
113.35284996032715,128.15,62.03,117.97,4778.00,0.00
113.4258439540863,122.29,53.44,126.56,4906.00,0.00
113.49778175354004,114.93,46.65,133.35,4172.00,0.00
113.5699679851532,106.64,42.16,137.84,4752.00,0.00
113.64152884483337,97.89,40.13,139.87,3696.00,0.00
113.71447205543518,88.74,40.62,139.38,1756.00,0.00
113.78547286987305,80.04,43.63,136.37,3240.00,0.00
113.85749006271362,72.10,49.00,131.00,5280.00,0.00
113.92971396446228,65.33,56.47,123.53,5086.00,0.00
114.00177693367004,60.01,65.77,114.23,4028.00,0.00
114.07398891448975,56.59,76.05,103.95,4722.00,0.00
114.14555406570435,55.06,87.17,92.83,2704.00,0.00
114.2173330783844,55.57,98.44,81.56,2346.00,0.00
114.28944182395935,58.09,109.28,70.72,1446.00,0.00
114.3627417087555,62.49,119.13,60.87,2032.00,0.00
114.43343901634216,68.55,127.51,52.49,2572.00,0.00
114.5056300163269,75.95,133.97,46.03,2858.00,0.00
114.577312707901,84.32,138.19,41.81,3444.00,0.00
114.64967083930969,93.24,139.95,40.05,2760.00,0.00
114.72235608100891,102.37,139.14,40.86,1282.00,0.00
114.79481673240662,110.89,135.89,44.11,3086.00,0.00
114.86719393730164,118.82,130.17,49.83,2798.00,0.00
114.93891596794128,125.42,122.47,57.53,3792.00,0.00
115.01299786567688,130.47,113.12,66.88,3916.00,0.00
115.08336186408997,133.71,102.59,77.41,2108.00,0.00
115.15509581565857,134.99,91.26,88.74,2670.00,0.00
115.22718811035156,134.22,80.17,99.83,1212.00,0.00
115.29948401451111,131.40,69.28,110.72,2166.00,0.00
115.37162780761719,126.76,59.60,120.40,2914.00,0.00
115.44419193267822,120.50,51.47,128.53,3912.00,0.00
115.51641511917114,112.94,45.31,134.69,4882.00,0.00
115.5888180732727,104.34,41.38,138.62,4686.00,0.00
115.66009783744812,95.38,40.00,140.00,2534.00,0.00
115.7326250076294,86.52,41.14,138.86,4174.00,0.00
115.80411887168884,77.86,44.83,135.17,1754.00,0.00
115.87752509117126,70.19,50.78,129.22,4372.00,0.00
115.9482090473175,63.78,58.74,121.26,4994.00,0.00
116.02022290229797,58.97,68.29,111.71,3018.00,0.00
116.0923719406128,55.99,78.94,101.06,5036.00,0.00
116.16402387619019,55.00,90.16,89.84,1960.00,0.00
116.23636198043823,56.05,101.37,78.63,2930.00,0.00
116.30827713012695,59.08,112.00,68.00,4860.00,0.00
116.38041400909424,63.86,121.38,58.62,3142.00,0.00
116.45246291160583,70.38,129.41,50.59,3604.00,0.00
116.52425503730774,78.08,135.31,44.69,802.00,0.00
116.59896397590637,86.52,138.86,41.14,1600.00,0.00
116.66807579994202,95.63,139.99,40.01,3222.00,0.00
116.7408378124237,104.58,138.54,41.46,2116.00,0.00
116.81370782852173,113.16,134.55,45.45,4466.00,0.00
116.88566589355469,120.59,128.43,51.57,1998.00,0.00
116.95799398422241,126.91,120.15,59.85,1970.00,0.00
117.0307559967041,131.51,110.43,69.57,5198.00,0.00
117.10165309906006,134.24,99.68,80.32,2188.00,0.00
117.17381381988525,134.98,88.43,91.57,3084.00,0.00
117.24694991111755,133.65,77.11,102.89,2304.00,0.00
117.31845688819885,130.41,66.74,113.26,2316.00,0.00
117.39066100120544,125.25,57.29,122.71,4300.00,0.00
117.46318697929382,118.61,49.64,130.36,4192.00,0.00
117.53492593765259,110.77,44.05,135.95,3722.00,0.00
117.60703897476196,102.12,40.80,139.20,2818.00,0.00
117.67875480651855,93.12,40.06,139.94,4482.00,0.00
117.75081205368042,84.08,41.90,138.10,4476.00,0.00
117.82285404205322,75.84,46.11,133.89,2664.00,0.00
117.89481401443481,68.36,52.70,127.30,4856.00,0.00
117.96717596054077,62.35,61.12,118.88,5482.00,0.00
118.03890895843506,58.04,70.87,109.13,2732.00,0.00
118.11090278625488,55.53,81.87,98.13,5302.00,0.00
118.18247580528259,55.08,93.14,86.86,2298.00,0.00
118.25493001937866,56.62,104.10,75.90,2068.00,0.00
118.32736396789551,60.19,114.64,65.36,4394.00,0.00
118.39912390708923,65.50,123.77,56.23,2278.00,0.00
118.4714629650116,72.31,131.18,48.82,2382.00,0.00
118.54377102851868,80.28,136.49,43.51,1848.00,0.00
118.61587285995483,88.99,139.43,40.57,3792.00,0.00
118.68728494644165,98.01,139.86,40.14,1346.00,0.00
118.75989890098572,106.88,137.74,42.26,2760.00,0.00
118.83252096176147,115.25,133.12,46.88,5052.00,0.00
118.90457201004028,122.47,126.34,53.66,1160.00,0.00
118.9772698879242,128.29,117.71,62.29,4168.00,0.00
119.04958605766296,132.42,107.67,72.33,2668.00,0.00
119.12111806869507,134.65,96.58,83.42,3002.00,0.00
119.19300889968872,134.83,85.45,94.55,1714.00,0.00
119.26604080200195,132.96,74.25,105.75,1026.00,0.00
119.33747577667236,129.17,64.01,115.99,2664.00,0.00
119.40987873077393,123.64,55.09,124.91,4660.00,0.00
119.48217511177063,116.64,47.95,132.05,3274.00,0.00
119.55422592163086,108.43,42.90,137.10,4228.00,0.00
119.62584781646729,99.76,40.36,139.64,1962.00,0.00
119.6978530883789,90.74,40.28,139.72,4040.00,0.00
119.77017307281494,81.81,42.80,137.20,4358.00,0.00
119.8421049118042,73.67,47.70,132.30,4254.00,0.00
119.91429686546326,66.63,54.76,125.24,5542.00,0.00
119.98665308952332,61.03,63.61,116.39,4486.00,0.00
120.05850505828857,57.16,73.80,106.20,4912.00,0.00
120.13011598587036,55.21,84.83,95.17,3978.00,0.00
