Used Foils:,stiff_foils
Waterspeed:,0.0
Frequency:,0.7
Heave Amplitude:,40
Pitch Amplitude:,45
Camber Amplitude,90
Pitch Phase,0
Camber Phase,0
Turn Rate,0
Test Duration, 10

Time,Heave_pos,Pitch_right,Pitch_left,Power_consumption,Noise
330.2883629798889,106.83,51.79,128.21,550.00,0.00
330.3606986999512,94.35,50.01,129.99,5210.00,0.00
330.4326009750366,82.09,52.14,127.86,6966.00,0.00
330.5045118331909,70.80,58.15,121.85,6950.00,0.00
330.5769889354706,62.09,67.27,112.73,7422.00,0.00
330.6487319469452,56.64,78.65,101.35,8796.00,0.00
331.69655084609985,55.00,90.18,89.82,432.00,0.00
331.7693829536438,57.04,104.20,75.80,2186.00,0.00
331.8412868976593,62.76,116.63,63.37,5434.00,0.00
331.9131729602814,71.88,126.72,53.28,4744.00,0.00
331.98487091064453,83.19,132.99,47.01,2956.00,0.00
332.0569257736206,95.50,135.00,45.00,4456.00,0.00
332.12891483306885,107.93,132.58,47.42,806.00,0.00
332.20166087150574,119.22,125.82,54.18,6322.00,0.00
332.27374386787415,127.93,115.55,64.45,6648.00,0.00
332.34572887420654,133.36,102.74,77.26,7154.00,0.00
332.4172909259796,134.98,88.67,91.33,6036.00,0.00
332.48976588249207,132.63,74.73,105.27,1914.00,0.00
332.56201171875,126.64,62.46,117.54,3910.00,0.00
332.63491702079773,117.30,52.64,127.36,4660.00,0.00
332.70660495758057,105.85,46.69,133.31,5914.00,0.00
332.7778208255768,93.32,45.04,134.96,6276.00,0.00
332.8503589630127,80.96,47.87,132.13,4958.00,0.00
332.92245078086853,69.99,54.88,125.12,7654.00,0.00
332.9939477443695,61.51,65.39,114.61,8874.00,0.00
333.0659158229828,56.37,78.34,101.66,8976.00,0.00
333.13722109794617,55.06,92.46,87.54,7318.00,0.00
333.2098958492279,57.79,106.51,73.49,1020.00,0.00
333.28151178359985,64.10,118.58,61.42,6020.00,0.00
333.35347080230713,73.55,127.98,52.02,6810.00,0.00
333.425518989563,85.13,133.61,46.39,4046.00,0.00
333.4979057312012,97.69,134.90,45.10,2526.00,0.00
333.5703480243683,109.98,131.72,48.28,1474.00,0.00
333.6428179740906,120.92,124.27,55.73,7282.00,0.00
333.71443700790405,129.03,113.66,66.34,5626.00,0.00
333.78686594963074,133.92,100.37,79.63,3922.00,0.00
333.8584198951721,134.86,86.22,93.78,4562.00,0.00
333.93089294433594,131.90,72.62,107.38,1780.00,0.00
334.00297689437866,125.14,60.41,119.59,6212.00,0.00
334.0751898288727,115.45,51.32,128.68,6620.00,0.00
334.1471219062805,103.73,46.08,133.92,5424.00,0.00
334.21885681152344,91.14,45.21,134.79,3576.00,0.00
334.2911159992218,78.93,48.79,131.21,2664.00,0.00
334.36309599876404,68.19,56.60,123.40,3968.00,0.00
334.4350278377533,60.37,67.48,112.52,4824.00,0.00
334.5064580440521,55.86,80.74,99.26,3848.00,0.00
334.5785300731659,55.26,95.11,84.89,2960.00,0.00
334.65042781829834,58.57,108.60,71.40,2684.00,0.00
334.72248911857605,65.53,120.43,59.57,5996.00,0.00
334.7944829463959,75.58,129.34,50.66,4572.00,0.00
334.8664698600769,87.26,134.15,45.85,3630.00,0.00
334.93844199180603,99.86,134.67,45.33,3228.00,0.00
335.0112359523773,112.14,130.66,49.34,2694.00,0.00
335.0835430622101,122.42,122.76,57.24,3568.00,0.00
335.15563106536865,130.21,111.36,68.64,4090.00,0.00
335.22723388671875,134.37,97.96,82.04,2828.00,0.00
335.29935693740845,134.64,83.97,96.03,3788.00,0.00
335.37215304374695,130.92,70.20,109.80,3982.00,0.00
335.4439821243286,123.66,58.60,121.40,4512.00,0.00
335.51647210121155,113.38,50.03,129.97,6092.00,0.00
335.5883979797363,101.58,45.61,134.39,5016.00,0.00
335.6599967479706,88.79,45.55,134.45,4762.00,0.00
335.7321078777313,76.80,49.93,130.07,2448.00,0.00
335.8040339946747,66.73,58.16,121.84,3828.00,0.00
335.87618684768677,59.25,69.82,110.18,4958.00,0.00
335.9477529525757,55.44,83.35,96.65,3322.00,0.00
336.0198640823364,55.54,97.35,82.65,2188.00,0.00
336.09223914146423,59.61,110.98,69.02,1346.00,0.00
336.16423296928406,67.18,122.34,57.66,4128.00,0.00
336.23619985580444,77.36,130.39,49.61,4928.00,0.00
336.30814695358276,89.59,134.59,45.41,5338.00,0.00
336.38091802597046,102.20,134.27,45.73,5250.00,0.00
336.4530448913574,114.25,129.45,50.55,1976.00,0.00
336.52650785446167,124.09,120.89,59.11,3296.00,0.00
336.59773206710815,131.27,108.98,71.02,5008.00,0.00
336.66896295547485,134.72,95.33,84.67,2406.00,0.00
336.7417678833008,134.25,81.35,98.65,4378.00,0.00
336.81396293640137,129.82,67.85,112.15,4686.00,0.00
336.88634490966797,121.96,56.75,123.25,5482.00,0.00
336.9584240913391,111.41,48.96,131.04,5004.00,0.00
337.0291540622711,99.24,45.25,134.75,930.00,0.00
337.10197401046753,86.47,46.03,133.97,4844.00,0.00
337.1741099357605,74.88,51.11,128.89,6322.00,0.00
337.2462010383606,65.11,60.09,119.91,4922.00,0.00
337.3185279369354,58.25,72.23,107.77,2714.00,0.00
337.3904209136963,55.18,85.79,94.21,2732.00,0.00
337.4614288806915,55.99,99.95,80.05,2762.00,0.00
337.53371596336365,60.78,113.29,66.70,4598.00,0.00
337.6058506965637,68.93,124.13,55.87,4296.00,0.00
337.6779088973999,79.51,131.49,48.51,4854.00,0.00
337.7498939037323,91.94,134.87,45.13,1318.00,0.00
337.8228290081024,104.51,133.71,46.29,3362.00,0.00
337.89523100852966,116.14,128.21,51.79,5328.00,0.00
337.96728706359863,125.66,118.90,61.10,3224.00,0.00
338.039479970932,132.20,106.54,73.46,5714.00,0.00
338.111407995224,134.92,92.88,87.12,2504.00,0.00
338.18350315093994,133.73,78.75,101.25,3238.00,0.00
338.25605607032776,128.60,65.58,114.42,1072.00,0.00
338.3279469013214,120.30,55.15,124.85,4256.00,0.00
338.40043091773987,109.23,47.95,132.05,6410.00,0.00
338.4716091156006,96.88,45.05,134.95,1474.00,0.00
338.54405188560486,84.18,46.68,133.32,2284.00,0.00
338.61589193344116,72.87,52.51,127.49,3660.00,0.00
338.68778014183044,63.60,62.13,117.87,3558.00,0.00
338.7597849369049,57.38,74.70,105.30,3476.00,0.00
338.8315830230713,55.02,88.45,91.55,3222.00,0.00
338.90392804145813,56.58,102.53,77.47,3470.00,0.00
338.97643280029297,62.06,115.53,64.47,4374.00,0.00
339.04792380332947,70.62,125.68,54.32,3450.00,0.00
339.12008810043335,81.71,132.44,47.56,5846.00,0.00
339.19235610961914,94.30,134.99,45.01,2416.00,0.00
339.2648198604584,106.62,133.06,46.94,2424.00,0.00
339.3369028568268,118.10,126.74,53.26,2506.00,0.00
339.409245967865,127.12,116.81,63.19,2110.00,0.00
339.4812390804291,132.95,104.23,75.77,6128.00,0.00
339.55257177352905,135.00,90.23,89.77,1838.00,0.00
339.62530183792114,133.02,76.01,103.99,1654.00,0.00
339.69738602638245,127.26,63.39,116.61,2212.00,0.00
339.76989698410034,118.43,53.53,126.47,2202.00,0.00
339.8420338630676,107.00,47.07,132.93,6882.00,0.00
339.9137101173401,94.52,45.00,135.00,2714.00,0.00
339.9855680465698,82.09,47.41,132.59,3142.00,0.00
340.05797290802,70.94,54.05,125.95,3086.00,0.00
340.1300799846649,62.09,64.43,115.57,1816.00,0.00
340.20224499702454,56.70,77.04,102.96,1842.00,0.00
