Used Foils:,stiff_foils
Waterspeed:,0.0
Frequency:,0.6
Heave Amplitude:,40
Pitch Amplitude:,40
Camber Amplitude,90
Pitch Phase,0
Camber Phase,0
Turn Rate,0
Test Duration, 10

Time,Heave_pos,Pitch_right,Pitch_left,Power_consumption,Noise
250.29634594917297,61.66,109.34,70.66,1776.00,0.00
250.3687241077423,68.93,116.54,63.46,4266.00,0.00
250.44065499305725,78.01,121.69,58.31,2802.00,0.00
250.51296091079712,88.20,124.49,55.51,3694.00,0.00
250.58495378494263,99.16,124.81,55.19,344.00,0.00
250.6580708026886,109.68,122.56,57.44,1524.00,0.00
250.72983574867249,119.12,117.92,62.08,4814.00,0.00
250.80186295509338,126.79,111.24,68.76,3130.00,0.00
250.87434792518616,132.19,102.88,77.12,4274.00,0.00
250.9470658302307,134.76,93.82,86.18,1822.00,0.00
251.01773595809937,134.45,84.22,95.78,2144.00,0.00
251.0906319618225,131.24,75.18,104.82,1682.00,0.00
251.1625509262085,125.47,67.32,112.68,2804.00,0.00
251.2343990802765,117.27,60.93,119.07,3860.00,0.00
251.30680584907532,107.41,56.73,123.27,2452.00,0.00
251.37867403030396,96.91,55.04,124.96,5514.00,0.00
251.45060896873474,86.13,55.87,124.13,6076.00,0.00
251.52265286445618,75.86,59.27,120.73,4752.00,0.00
251.59473395347595,67.15,64.88,115.12,6344.00,0.00
251.66670298576355,60.47,72.34,107.66,5252.00,0.00
251.7383041381836,56.32,81.08,98.92,4092.00,0.00
252.78659105300903,55.00,90.26,89.74,134.00,0.00
252.859139919281,56.51,100.87,79.13,2064.00,0.00
252.93148398399353,60.83,110.79,69.21,2392.00,0.00
253.00329494476318,67.77,119.30,60.70,4126.00,0.00
253.07520604133606,76.48,125.46,54.54,3650.00,0.00
253.1468150615692,86.67,129.12,50.88,682.00,0.00
253.2188858985901,97.46,129.92,50.08,3032.00,0.00
253.29140210151672,108.08,127.80,52.20,3464.00,0.00
253.3634729385376,117.73,122.91,57.09,2978.00,0.00
253.43551898002625,125.82,115.50,64.50,5226.00,0.00
253.50797700881958,131.47,106.44,73.56,4028.00,0.00
253.5802640914917,134.54,96.06,83.94,3090.00,0.00
253.65124678611755,134.70,85.09,94.91,1682.00,0.00
253.7239089012146,131.98,74.76,105.24,2054.00,0.00
253.79591393470764,126.54,65.40,114.60,2080.00,0.00
253.8680238723755,118.67,57.76,122.24,2796.00,0.00
253.94005584716797,109.16,52.59,127.41,3782.00,0.00
254.0123736858368,98.61,50.16,129.84,5534.00,0.00
254.0838119983673,87.80,50.65,129.35,4034.00,0.00
254.15616011619568,77.52,54.02,125.98,6282.00,0.00
254.2282679080963,68.51,60.03,119.97,5144.00,0.00
254.3000979423523,61.44,68.23,111.77,6240.00,0.00
254.37218379974365,56.79,78.17,101.83,3870.00,0.00
254.44615578651428,55.02,88.69,91.31,1710.00,0.00
254.51585292816162,56.13,99.46,80.54,1518.00,0.00
254.58801889419556,60.09,109.53,70.47,1472.00,0.00
254.6602509021759,66.50,118.07,61.93,3814.00,0.00
254.73206996917725,75.20,124.76,55.24,4804.00,0.00
254.8041229248047,85.25,128.79,51.21,2514.00,0.00
254.87604689598083,95.85,129.99,50.01,3044.00,0.00
254.94814586639404,106.69,128.25,51.75,714.00,0.00
255.02077913284302,116.52,123.72,56.28,2552.00,0.00
255.09325289726257,124.87,116.60,63.40,5306.00,0.00
255.1650528907776,130.84,107.76,72.24,4080.00,0.00
255.23678970336914,134.32,97.35,82.65,2212.00,0.00
255.3084020614624,134.85,86.54,93.46,888.00,0.00
255.3817958831787,132.46,75.98,104.02,3348.00,0.00
255.4536647796631,127.33,66.45,113.55,1652.00,0.00
255.52582097053528,119.83,58.64,121.36,2078.00,0.00
255.59779000282288,110.52,53.13,126.87,5846.00,0.00
255.67002773284912,100.06,50.32,129.68,4686.00,0.00
255.74113273620605,89.09,50.44,129.56,5738.00,0.00
255.8133819103241,78.84,53.41,126.59,4110.00,0.00
255.88539385795593,69.50,59.18,120.82,4466.00,0.00
255.95788097381592,62.17,67.14,112.86,6520.00,0.00
256.0299439430237,57.25,76.78,103.22,6170.00,0.00
256.10111689567566,55.09,87.39,92.61,3706.00,0.00
256.17327189445496,55.85,98.19,81.81,2222.00,0.00
256.2458608150482,59.47,108.38,71.62,1156.00,0.00
256.3173110485077,65.60,117.12,62.88,4502.00,0.00
256.3894307613373,74.08,124.09,55.91,3874.00,0.00
256.461669921875,83.99,128.45,51.55,2634.00,0.00
256.5336410999298,94.55,130.00,50.00,2130.00,0.00
256.606027841568,105.43,128.62,51.38,928.00,0.00
256.678671836853,115.40,124.40,55.60,3876.00,0.00
256.75108790397644,123.88,117.67,62.33,2960.00,0.00
256.8228769302368,130.24,108.92,71.08,3876.00,0.00
256.8945369720459,134.06,98.63,81.37,3054.00,0.00
256.9668538570404,134.95,87.99,92.01,1264.00,0.00
257.04082584381104,132.90,77.21,102.79,4890.00,0.00
257.1114037036896,128.08,67.52,112.48,3860.00,0.00
257.1834309101105,120.84,59.47,120.53,3316.00,0.00
257.25550985336304,111.71,53.66,126.34,5524.00,0.00
257.32778882980347,101.36,50.51,129.49,780.00,0.00
257.39931201934814,90.39,50.27,129.73,3864.00,0.00
257.47163701057434,80.04,52.90,127.10,5980.00,0.00
257.549045085907,70.64,58.27,121.73,6076.00,0.00
257.61538791656494,62.94,66.08,113.92,6478.00,0.00
257.68776988983154,57.75,75.42,104.58,5460.00,0.00
257.75900983810425,55.19,86.09,93.91,4970.00,0.00
257.83100986480713,55.60,96.90,83.10,2654.00,0.00
257.9033920764923,58.83,107.08,72.92,2710.00,0.00
257.9756009578705,64.83,116.26,63.74,4102.00,0.00
258.0477788448334,72.98,123.39,56.61,1294.00,0.00
258.11965703964233,82.59,128.03,51.97,3384.00,0.00
258.191771030426,93.39,129.97,50.03,3320.00,0.00
258.2646908760071,104.17,128.94,51.06,1586.00,0.00
258.33617997169495,114.27,125.05,54.95,4358.00,0.00
258.40963888168335,122.96,118.60,61.40,3194.00,0.00
258.48077178001404,129.61,110.06,69.94,4952.00,0.00
258.5527141094208,133.76,99.90,80.10,2408.00,0.00
258.62457513809204,134.99,89.30,90.70,2098.00,0.00
258.6974937915802,133.30,78.45,101.55,1432.00,0.00
258.76924872398376,128.80,68.61,111.39,1750.00,0.00
258.84165692329407,121.83,60.33,119.67,5026.00,0.00
258.9139070510864,112.89,54.22,125.78,4748.00,0.00
258.9855010509491,102.64,50.74,129.26,5246.00,0.00
259.05739092826843,91.84,50.13,129.87,5990.00,0.00
259.1296429634094,81.26,52.43,127.57,4790.00,0.00
259.2015759944916,71.57,57.58,122.42,4018.00,0.00
259.2738049030304,63.74,65.05,114.95,5806.00,0.00
259.34565472602844,58.25,74.21,105.79,5850.00,0.00
259.41764092445374,55.34,84.79,95.21,3520.00,0.00
259.488765001297,55.40,95.61,84.39,812.00,0.00
259.56167101860046,58.29,105.89,74.11,2824.00,0.00
259.63391399383545,63.99,115.26,64.74,4244.00,0.00
259.70573592185974,71.90,122.65,57.35,2946.00,0.00
259.7773997783661,81.36,127.60,52.40,4496.00,0.00
259.8495178222656,92.09,129.89,50.11,2088.00,0.00
259.9218158721924,102.89,129.21,50.79,1002.00,0.00
259.9941830635071,113.11,125.66,54.34,5070.00,0.00
260.06648898124695,122.01,119.50,60.50,3158.00,0.00
260.13888597488403,129.01,111.05,68.95,3942.00,0.00
260.21189999580383,133.37,101.30,78.70,3720.00,0.00
260.28246998786926,135.00,90.45,89.55,2628.00,0.00
260.3552839756012,133.65,79.71,100.29,1226.00,0.00
260.42715287208557,129.48,69.72,110.28,1960.00,0.00
260.4996039867401,122.78,61.22,118.78,5050.00,0.00
260.5717749595642,114.05,54.83,125.17,4332.00,0.00
260.64400482177734,103.77,50.97,129.03,5558.00,0.00
260.71565985679626,93.14,50.04,129.96,3902.00,0.00
260.7878830432892,82.35,52.05,127.95,5732.00,0.00
260.86028695106506,72.64,56.83,123.17,4112.00,0.00
260.93204379081726,64.57,64.04,115.96,6466.00,0.00
261.00382804870605,58.72,73.15,106.85,5230.00,0.00
261.07548809051514,55.53,83.49,96.51,2608.00,0.00
261.1475977897644,55.23,94.31,85.69,1836.00,0.00
261.2197530269623,57.85,104.82,75.18,4466.00,0.00
261.29178404808044,63.18,114.24,65.76,3522.00,0.00
261.3638198375702,70.96,121.97,58.03,1572.00,0.00
261.4361159801483,80.28,127.19,52.81,4938.00,0.00
261.50811195373535,90.79,129.78,50.22,2746.00,0.00
261.58086681365967,101.75,129.43,50.57,1310.00,0.00
261.65303897857666,111.94,126.24,53.76,4630.00,0.00
261.7258508205414,121.15,120.27,59.73,3928.00,0.00
261.7978529930115,128.31,112.15,67.85,2496.00,0.00
261.8695378303528,133.03,102.41,77.59,2252.00,0.00
261.9412319660187,134.96,91.76,88.24,4450.00,0.00
262.01295804977417,133.94,80.83,99.17,1364.00,0.00
262.0857238769531,130.12,70.86,109.14,3004.00,0.00
262.1579039096832,123.60,62.04,117.96,2688.00,0.00
262.2304768562317,115.06,55.39,124.61,2858.00,0.00
262.30261993408203,104.90,51.24,128.76,5806.00,0.00
262.374046087265,94.30,50.01,129.99,5810.00,0.00
262.44592809677124,83.60,51.66,128.34,5174.00,0.00
262.51868891716003,73.61,56.20,123.80,6314.00,0.00
262.5904006958008,65.43,63.06,116.94,5888.00,0.00
262.66297674179077,59.22,72.11,107.89,5308.00,0.00
262.73419880867004,55.74,82.36,97.64,3628.00,0.00
262.80613589286804,55.11,93.01,86.99,1556.00,0.00
262.87885093688965,57.43,103.74,76.26,4876.00,0.00
262.95067405700684,62.49,113.31,66.69,4952.00,0.00
263.0226500034332,69.81,121.08,58.92,2438.00,0.00
263.09670209884644,79.21,126.75,53.25,3018.00,0.00
263.1670308113098,89.64,129.64,50.36,3536.00,0.00
263.23927998542786,100.31,129.65,50.35,2068.00,0.00
