Used Foils:,cambered_foils_balloon_off
Waterspeed:,0.0
Frequency:,0.8
Heave Amplitude:,38
Pitch Amplitude:,25
Camber Amplitude,90
Pitch Phase,0
Camber Phase,0
Turn Rate,0
Test Duration,10

Time,Heave_pos,Pitch_right,Pitch_left,Power_consumption,Noise
16.0443012714386,57.00,90.00,90.00,132.00,0.00
17.090861082077026,57.28,93.01,86.99,128.00,0.00
17.16385006904602,61.34,101.60,78.40,1518.00,0.00
17.235920190811157,69.76,108.69,71.31,4954.00,0.00
17.307486057281494,81.46,113.36,66.64,6330.00,0.00
17.37948226928711,94.90,115.00,65.00,6014.00,0.00
17.452258110046387,108.37,113.40,66.60,3434.00,0.00
17.524364233016968,120.09,108.77,71.23,6436.00,0.00
17.596498250961304,128.57,101.71,78.29,6160.00,0.00
17.668376207351685,132.70,93.13,86.87,5790.00,0.00
17.740336179733276,131.94,84.15,95.85,1098.00,0.00
17.812588214874268,126.40,75.92,104.08,2500.00,0.00
17.884827136993408,116.63,69.45,110.55,4816.00,0.00
17.956927061080933,104.17,65.74,114.26,4280.00,0.00
18.0282461643219,90.71,65.16,114.84,5852.00,0.00
18.100621223449707,77.45,67.83,112.17,5440.00,0.00
18.173580169677734,66.65,73.35,106.65,5918.00,0.00
18.24391222000122,59.60,80.91,99.09,6322.00,0.00
18.3159601688385,57.00,89.87,90.13,6242.00,0.00
18.387632131576538,59.39,98.73,81.27,6530.00,0.00
18.460129022598267,66.28,106.37,73.63,5786.00,0.00
18.531684160232544,76.94,112.00,68.00,6528.00,0.00
18.603745222091675,90.14,114.79,65.21,6006.00,0.00
18.676706075668335,103.62,114.35,65.65,4834.00,0.00
18.748905181884766,116.16,110.76,69.24,4880.00,0.00
18.82102131843567,126.08,104.39,75.61,7012.00,0.00
18.892773151397705,131.76,96.34,83.66,5878.00,0.00
18.96485137939453,132.77,87.24,92.76,2808.00,0.00
19.037285327911377,128.84,78.62,101.38,3962.00,0.00
19.108933210372925,120.52,71.48,108.52,4794.00,0.00
19.18137502670288,108.90,66.73,113.27,5800.00,0.00
19.253267288208008,95.48,65.00,115.00,3624.00,0.00
19.325318336486816,81.81,66.55,113.45,4018.00,0.00
19.396879196166992,70.19,71.06,108.94,5260.00,0.00
19.46893620491028,61.61,78.07,101.93,5086.00,0.00
19.540417194366455,57.32,86.74,93.26,3264.00,0.00
19.612713098526,57.97,95.61,84.39,2206.00,0.00
19.684877157211304,63.38,103.87,76.13,5498.00,0.00
19.75697112083435,73.05,110.41,69.59,5738.00,0.00
19.829200267791748,85.27,114.17,65.83,3598.00,0.00
19.901265382766724,98.91,114.87,65.13,5774.00,0.00
19.973576307296753,112.21,112.29,67.71,4872.00,0.00
20.045985221862793,122.96,106.93,73.07,6882.00,0.00
20.117565393447876,130.33,99.20,80.80,7154.00,0.00
20.189824104309082,133.00,90.38,89.62,2864.00,0.00
20.26199507713318,130.74,81.50,98.50,2716.00,0.00
20.334044218063354,123.85,73.73,106.27,3260.00,0.00
20.406581163406372,113.22,68.06,111.94,5246.00,0.00
20.478447198867798,100.05,65.22,114.78,5892.00,0.00
20.549769163131714,86.57,65.62,114.38,5144.00,0.00
20.621917247772217,74.00,69.17,110.83,7026.00,0.00
20.693846225738525,64.03,75.51,104.49,4732.00,0.00
20.765979290008545,58.29,83.54,96.46,5826.00,0.00
20.838163375854492,57.19,92.51,87.49,1910.00,0.00
20.909809350967407,60.99,101.15,78.85,5688.00,0.00
20.982116222381592,69.20,108.35,71.65,6918.00,0.00
21.054113149642944,80.75,113.17,66.83,6140.00,0.00
21.12617826461792,94.14,114.99,65.01,4640.00,0.00
21.19912338256836,107.65,113.57,66.43,4096.00,0.00
21.27107000350952,119.52,109.10,70.90,6494.00,0.00
21.343523263931274,128.30,102.04,77.96,7400.00,0.00
21.41460919380188,132.62,93.51,86.49,4680.00,0.00
21.486022233963013,132.07,84.52,95.48,974.00,0.00
21.559069395065308,126.72,76.24,103.76,4574.00,0.00
21.631608247756958,117.10,69.66,110.34,5904.00,0.00
21.703816413879395,104.91,65.87,114.13,4798.00,0.00
21.775293350219727,91.09,65.13,114.87,1844.00,0.00
21.84739923477173,77.96,67.65,112.35,5426.00,0.00
21.91931700706482,67.17,72.98,107.02,5718.00,0.00
21.990920305252075,59.74,80.68,99.32,5298.00,0.00
22.063393115997314,57.01,89.50,90.50,4182.00,0.00
22.134812355041504,59.13,98.26,81.74,1374.00,0.00
22.207510232925415,65.90,106.08,73.92,4844.00,0.00
22.279629230499268,76.61,111.88,68.12,6206.00,0.00
22.351587295532227,89.57,114.74,65.26,6596.00,0.00
22.424270153045654,103.24,114.40,65.60,4362.00,0.00
22.49649429321289,115.84,110.90,69.10,1904.00,0.00
22.56852102279663,125.85,104.59,75.41,7192.00,0.00
22.639875173568726,131.66,96.58,83.42,7020.00,0.00
22.711989164352417,132.83,87.62,92.38,2244.00,0.00
22.784464359283447,129.01,78.85,101.15,4572.00,0.00
22.856743335723877,120.94,71.73,108.27,2062.00,0.00
22.929089069366455,109.25,66.83,113.17,6158.00,0.00
23.000754356384277,95.86,65.01,114.99,5528.00,0.00
23.07279634475708,82.53,66.38,113.62,5502.00,0.00
23.144720315933228,70.48,70.90,109.10,5738.00,0.00
23.216703176498413,61.79,77.85,102.15,5994.00,0.00
23.2885901927948,57.43,86.24,93.76,4568.00,0.00
23.360575199127197,57.88,95.36,84.64,2576.00,0.00
23.432786226272583,63.17,103.66,76.34,3520.00,0.00
23.50446128845215,72.59,110.19,69.81,7590.00,0.00
23.57644009590149,84.90,114.10,65.90,4932.00,0.00
23.64850616455078,98.53,114.89,65.11,5574.00,0.00
23.72145104408264,111.87,112.40,67.60,6390.00,0.00
23.793437957763672,122.70,107.11,72.89,5914.00,0.00
23.865379095077515,130.19,99.44,80.56,7406.00,0.00
23.937494039535522,132.99,90.63,89.37,2514.00,0.00
24.009225130081177,130.93,81.86,98.14,2634.00,0.00
24.08187437057495,124.10,73.92,106.08,6032.00,0.00
24.153874397277832,113.56,68.18,111.82,4640.00,0.00
24.22633123397827,100.61,65.27,114.73,6422.00,0.00
24.29791831970215,86.94,65.57,114.43,3942.00,0.00
24.369970321655273,74.16,69.10,110.90,5024.00,0.00
24.442135095596313,64.26,75.31,104.69,4862.00,0.00
24.513598203659058,58.39,83.30,96.70,5626.00,0.00
24.585323095321655,57.17,92.38,87.62,2314.00,0.00
24.658286094665527,60.91,101.04,78.96,3060.00,0.00
24.729716062545776,68.92,108.18,71.82,5714.00,0.00
24.80210018157959,80.57,113.13,66.87,7982.00,0.00
24.873661279678345,93.95,114.99,65.01,6158.00,0.00
24.946497201919556,107.29,113.66,66.34,6230.00,0.00
25.01870632171631,119.37,109.18,70.82,4810.00,0.00
25.090793132781982,128.11,102.26,77.74,7608.00,0.00
25.16292929649353,132.57,93.76,86.24,6728.00,0.00
25.2341251373291,132.16,84.76,95.24,468.00,0.00
25.307132244110107,126.83,76.34,103.66,4230.00,0.00
25.379539251327515,117.57,69.89,110.11,4342.00,0.00
25.451884031295776,105.10,65.90,114.10,4060.00,0.00
25.52345609664917,91.47,65.11,114.89,5990.00,0.00
25.59528136253357,78.30,67.54,112.46,6652.00,0.00
25.66763710975647,67.30,72.89,107.11,5760.00,0.00
25.738993167877197,59.88,80.45,99.55,7442.00,0.00
25.81103229522705,57.02,89.25,90.75,5256.00,0.00
25.883219242095947,59.07,98.14,81.86,1410.00,0.00
25.95557928085327,65.78,105.98,74.02,4866.00,0.00
26.02775502204895,76.28,111.75,68.25,5986.00,0.00
