Used Foils:,stiff_foils
Waterspeed:,0.0
Frequency:,0.7
Heave Amplitude:,40
Pitch Amplitude:,40
Camber Amplitude,90
Pitch Phase,0
Camber Phase,0
Turn Rate,0
Test Duration, 10

Time,Heave_pos,Pitch_right,Pitch_left,Power_consumption,Noise
320.3026270866394,127.12,110.86,69.14,5368.00,0.00
320.3745868206024,133.00,100.92,79.08,8396.00,0.00
320.4462089538574,135.00,90.18,89.82,4552.00,0.00
320.51900482177734,133.07,79.27,100.73,2216.00,0.00
320.591490983963,127.26,69.30,110.70,1946.00,0.00
320.6635808944702,118.43,61.63,118.37,5396.00,0.00
320.73559498786926,107.00,56.61,123.39,7442.00,0.00
320.8073070049286,94.52,55.00,125.00,5706.00,0.00
320.87895798683167,82.09,56.87,123.13,6374.00,0.00
320.9512298107147,70.94,62.04,117.96,8116.00,0.00
321.0238289833069,62.09,70.11,109.89,8684.00,0.00
321.09494400024414,56.64,80.07,99.93,8668.00,0.00
322.1430377960205,55.00,90.15,89.85,140.00,0.00
322.21623277664185,57.04,102.62,77.38,3230.00,0.00
322.29072403907776,62.76,113.67,66.33,3576.00,0.00
322.3597068786621,71.73,122.54,57.46,4680.00,0.00
322.4317309856415,83.19,128.22,51.78,6566.00,0.00
322.50332903862,95.68,129.99,50.01,4326.00,0.00
322.57602190971375,107.93,127.85,52.15,6908.00,0.00
322.64800095558167,119.22,121.84,58.16,6328.00,0.00
322.7200617790222,127.93,112.71,67.29,8110.00,0.00
322.7925078868866,133.36,101.33,78.67,7756.00,0.00
322.8639929294586,134.98,88.82,91.18,5036.00,0.00
322.9363808631897,132.63,76.43,103.57,6032.00,0.00
323.0084228515625,126.53,65.38,114.62,2850.00,0.00
323.080463886261,117.30,56.79,123.21,3630.00,0.00
323.15329575538635,105.68,51.45,128.55,6718.00,0.00
323.22805976867676,93.32,50.04,129.96,5010.00,0.00
323.2964961528778,80.96,52.55,127.45,5506.00,0.00
323.3689730167389,69.85,58.89,121.11,6846.00,0.00
323.4405539035797,61.42,68.27,111.73,9120.00,0.00
323.51271891593933,56.37,79.64,100.36,9248.00,0.00
323.58393597602844,55.07,92.36,87.64,6914.00,0.00
323.6564600467682,57.79,104.68,75.32,2706.00,0.00
323.72852993011475,64.10,115.40,64.60,5214.00,0.00
323.8005599975586,73.55,123.76,56.24,3100.00,0.00
323.87336587905884,85.30,128.81,51.19,5204.00,0.00
323.944876909256,97.69,129.91,50.09,2104.00,0.00
324.01750087738037,110.14,127.02,52.98,6050.00,0.00
324.09009194374084,120.92,120.47,59.53,4880.00,0.00
324.1614668369293,129.03,111.03,68.97,7868.00,0.00
324.23303389549255,133.92,99.22,80.78,8542.00,0.00
324.30499505996704,134.86,86.64,93.36,4670.00,0.00
324.3778359889984,131.83,74.39,105.61,6278.00,0.00
324.4498097896576,125.14,63.70,116.30,5478.00,0.00
324.5227460861206,115.30,55.53,124.47,6072.00,0.00
324.59382486343384,103.55,50.93,129.07,6712.00,0.00
324.6654109954834,91.14,50.19,129.81,6734.00,0.00
324.73760890960693,78.77,53.44,126.56,6430.00,0.00
324.8095180988312,68.19,60.31,119.69,6240.00,0.00
324.88145184516907,60.37,69.99,110.01,9294.00,0.00
324.9531240463257,55.82,81.94,98.06,9136.00,0.00
325.0250370502472,55.26,94.54,85.46,5626.00,0.00
325.097491979599,58.57,106.53,73.47,2628.00,0.00
325.1695029735565,65.65,117.18,62.82,5250.00,0.00
325.2415428161621,75.58,124.97,55.03,4856.00,0.00
325.3135437965393,87.26,129.24,50.76,4282.00,0.00
325.38592195510864,100.04,129.68,50.32,2540.00,0.00
325.45832896232605,112.14,126.14,53.86,4862.00,0.00
325.530592918396,122.67,118.88,61.12,6366.00,0.00
325.60257506370544,130.21,108.98,71.02,7960.00,0.00
325.67437195777893,134.40,96.90,83.10,8340.00,0.00
325.74634289741516,134.59,84.29,95.71,3532.00,0.00
325.8190608024597,130.92,72.40,107.60,4562.00,0.00
325.89120292663574,123.53,61.97,118.03,4630.00,0.00
325.9631748199463,113.38,54.47,125.53,5178.00,0.00
326.0357098579407,101.41,50.52,129.48,7206.00,0.00
326.10760593414307,88.79,50.48,129.52,4990.00,0.00
326.17919087409973,76.64,54.46,125.54,6528.00,0.00
326.2510108947754,66.61,61.82,118.18,7734.00,0.00
326.32311177253723,59.25,72.06,107.94,8756.00,0.00
326.3948199748993,55.41,84.26,95.74,9110.00,0.00
326.4668779373169,55.57,96.70,83.30,6882.00,0.00
326.5393109321594,59.61,108.65,71.35,1346.00,0.00
326.6113760471344,67.31,118.86,61.14,6330.00,0.00
326.68320393562317,77.67,126.05,53.95,4172.00,0.00
326.7556369304657,89.59,129.63,50.37,4136.00,0.00
326.8272907733917,102.37,129.31,50.69,970.00,0.00
326.90006494522095,114.25,125.06,54.94,6478.00,0.00
326.9723148345947,124.21,117.33,62.67,6158.00,0.00
327.0443229675293,131.27,106.87,73.13,6220.00,0.00
327.11597204208374,134.74,94.56,85.44,7782.00,0.00
327.18801403045654,134.22,82.13,97.87,3126.00,0.00
327.2609419822693,129.82,70.31,109.69,5826.00,0.00
327.3331639766693,121.83,60.33,119.67,5316.00,0.00
327.40494108200073,111.41,53.52,126.48,5578.00,0.00
327.47793412208557,99.06,50.21,129.79,7576.00,0.00
327.54917097091675,86.47,50.92,129.08,8028.00,0.00
327.6211009025574,74.88,55.43,124.57,7888.00,0.00
327.69365406036377,65.00,63.55,116.45,9566.00,0.00
327.76510405540466,58.25,74.21,105.79,9496.00,0.00
327.83674597740173,55.14,86.61,93.39,9458.00,0.00
327.9083960056305,56.03,99.02,80.98,4316.00,0.00
327.9807081222534,60.78,110.71,69.29,2534.00,0.00
328.0530219078064,68.93,120.33,59.67,5652.00,0.00
328.1255519390106,79.67,126.95,53.05,4372.00,0.00
328.1972448825836,91.94,129.88,50.12,3948.00,0.00
328.2699809074402,104.68,128.81,51.19,1082.00,0.00
328.34210777282715,116.14,123.96,56.04,4234.00,0.00
328.4142940044403,125.77,115.56,64.44,5352.00,0.00
328.4864459037781,132.20,104.70,75.30,7828.00,0.00
328.55813813209534,134.93,92.39,87.61,7228.00,0.00
328.6306359767914,133.69,79.83,100.17,1236.00,0.00
328.7025349140167,128.60,68.29,111.71,4788.00,0.00
328.7747230529785,120.03,58.80,121.20,4834.00,0.00
328.84670782089233,109.23,52.62,127.38,5610.00,0.00
328.91846990585327,96.71,50.04,129.96,6440.00,0.00
328.9907650947571,84.18,51.49,128.51,6576.00,0.00
329.06268787384033,72.73,56.78,123.22,7300.00,0.00
329.134694814682,63.49,65.36,114.64,8572.00,0.00
329.2066617012024,57.38,76.40,103.60,8792.00,0.00
329.2780809402466,55.02,88.79,91.21,7108.00,0.00
329.35085892677307,56.63,101.30,78.70,4214.00,0.00
329.4224319458008,62.06,112.69,67.31,4116.00,0.00
329.49484491348267,70.76,121.82,58.18,4790.00,0.00
329.56696796417236,81.88,127.79,52.21,2136.00,0.00
329.6390058994293,94.30,129.99,50.01,2778.00,0.00
329.7118489742279,106.79,128.22,51.78,2422.00,0.00
329.78392601013184,118.10,122.65,57.35,5814.00,0.00
329.8563959598541,127.23,113.69,66.31,6946.00,0.00
329.9281749725342,133.00,102.48,77.52,5714.00,0.00
329.9998588562012,135.00,90.03,89.97,6786.00,0.00
330.0722858905792,133.02,77.57,102.43,4198.00,0.00
330.1442458629608,127.15,66.20,113.80,1698.00,0.00
330.21683502197266,118.29,57.48,122.52,6564.00,0.00
