Used Foils:,wide_foils_off
Waterspeed:,0.0
Frequency:,0.5
Heave Amplitude:,38
Pitch Amplitude:,20
Camber Amplitude,90
Pitch Phase,0
Camber Phase,0
Turn Rate,0
Test Duration,10

Time,Heave_pos,Pitch_right,Pitch_left,Power_consumption,Noise
251.21732306480408,57.00,90.00,90.00,132.00,0.00
251.28975009918213,57.97,94.49,85.51,1360.00,0.00
251.36136889457703,60.82,98.74,81.26,1864.00,0.00
251.4337899684906,65.42,102.55,77.45,1592.00,0.00
251.50570702552795,71.43,105.69,74.31,1228.00,0.00
251.5777599811554,78.82,108.10,71.90,1546.00,0.00
251.64958906173706,86.94,109.55,70.45,7898.00,0.00
251.72156190872192,95.48,110.00,70.00,1438.00,0.00
251.79379892349243,103.99,109.43,70.57,6452.00,0.00
251.8663148880005,112.04,107.88,72.12,5152.00,0.00
251.9384639263153,119.22,105.41,74.59,5214.00,0.00
252.01046204566956,125.17,102.16,77.84,4824.00,0.00
252.0817301273346,129.58,98.29,81.71,2828.00,0.00
252.15356993675232,132.23,93.99,86.01,1710.00,0.00
252.22512793540955,132.99,89.50,90.50,632.00,0.00
252.29682683944702,131.81,85.03,94.97,374.00,0.00
252.3696551322937,128.75,80.81,99.19,1256.00,0.00
252.44220280647278,123.97,77.06,102.94,5332.00,0.00
252.51416873931885,117.72,73.97,106.03,6544.00,0.00
252.58577680587769,110.31,71.70,108.30,540.00,0.00
252.65829610824585,102.12,70.35,109.65,5214.00,0.00
252.7300250530243,93.57,70.01,109.99,7186.00,0.00
252.80168080329895,85.09,70.69,109.31,7484.00,0.00
252.87429690361023,77.01,72.38,107.62,8638.00,0.00
252.94639801979065,70.05,74.91,105.09,5868.00,0.00
253.01834392547607,64.26,78.24,101.76,5958.00,0.00
253.0898151397705,59.98,82.23,97.77,4644.00,0.00
253.16136980056763,57.59,86.50,93.50,3394.00,0.00
253.2331519126892,57.05,91.00,89.00,1422.00,0.00
253.3044617176056,58.44,95.46,84.54,436.00,0.00
253.37693095207214,61.64,99.58,80.42,3104.00,0.00
253.4493808746338,66.65,103.32,76.68,3368.00,0.00
253.52191495895386,73.05,106.33,73.67,4378.00,0.00
253.59338808059692,80.46,108.48,71.52,5158.00,0.00
253.66544485092163,88.82,109.73,70.27,4856.00,0.00
253.73711681365967,97.39,109.96,70.04,4116.00,0.00
253.80986976623535,105.72,109.19,70.81,6892.00,0.00
253.88191103935242,113.72,107.40,72.60,5770.00,0.00
253.9544038772583,120.66,104.75,75.25,6304.00,0.00
254.0269739627838,126.36,101.29,78.71,1888.00,0.00
254.09816884994507,130.33,97.36,82.64,3558.00,0.00
254.16988396644592,132.59,92.94,87.06,986.00,0.00
254.24212980270386,132.88,88.43,91.57,2986.00,0.00
254.3139898777008,131.28,84.06,95.94,1386.00,0.00
254.3859498500824,127.83,79.93,100.07,902.00,0.00
254.45844793319702,122.62,76.26,103.74,5650.00,0.00
254.53080296516418,116.16,73.39,106.61,6970.00,0.00
254.6030719280243,108.43,71.29,108.71,5542.00,0.00
254.67496490478516,100.12,70.18,109.82,6792.00,0.00
254.7463800907135,91.54,70.08,109.92,4418.00,0.00
254.81838178634644,83.14,71.00,109.00,6560.00,0.00
254.89068484306335,75.35,72.88,107.12,8070.00,0.00
254.96293687820435,68.47,75.68,104.32,6556.00,0.00
255.03518104553223,63.11,79.12,100.88,6134.00,0.00
255.10652899742126,59.29,83.17,96.83,4446.00,0.00
255.17815709114075,57.28,87.56,92.44,2678.00,0.00
255.24972486495972,57.20,92.07,87.93,612.00,0.00
255.3217899799347,59.05,96.48,83.52,4204.00,0.00
255.39407587051392,62.73,100.56,79.44,1078.00,0.00
255.46651077270508,67.96,104.05,75.95,1320.00,0.00
255.53828406333923,74.74,106.92,73.08,4706.00,0.00
255.6104760169983,82.47,108.88,71.12,6030.00,0.00
255.68216800689697,90.71,109.87,70.13,3368.00,0.00
255.75472593307495,99.41,109.87,70.13,6792.00,0.00
255.82700181007385,107.76,108.84,71.16,2870.00,0.00
255.8989589214325,115.46,106.85,73.15,5396.00,0.00
255.9712529182434,122.12,104.01,75.99,4486.00,0.00
256.043860912323,127.46,100.40,79.60,2642.00,0.00
256.1153109073639,131.07,96.30,83.70,4318.00,0.00
256.1866569519043,132.82,91.94,88.06,846.00,0.00
256.25953698158264,132.67,87.37,92.63,1032.00,0.00
256.33057475090027,130.59,82.99,97.01,6278.00,0.00
256.4033639431,126.76,79.02,100.98,2844.00,0.00
256.47544980049133,121.19,75.51,104.49,5528.00,0.00
256.5480988025665,114.34,72.79,107.21,5088.00,0.00
256.6202371120453,106.63,70.96,109.04,6852.00,0.00
256.6918978691101,98.10,70.07,109.93,6602.00,0.00
256.7639670372009,89.53,70.21,109.79,6524.00,0.00
256.8354697227478,81.23,71.36,108.64,5620.00,0.00
256.9074807167053,73.64,73.46,106.54,4292.00,0.00
256.97981691360474,67.14,76.40,103.60,6386.00,0.00
257.0513758659363,62.05,80.04,99.96,5276.00,0.00
257.12361907958984,58.64,84.18,95.82,1766.00,0.00
257.19550800323486,57.09,88.62,91.38,1350.00,0.00
257.2668569087982,57.49,93.19,86.81,364.00,0.00
257.3387498855591,59.76,97.48,82.52,2470.00,0.00
257.41154193878174,63.84,101.45,78.55,1718.00,0.00
257.48336577415466,69.51,104.83,75.17,4800.00,0.00
257.5557041168213,76.38,107.43,72.57,5822.00,0.00
257.6276390552521,84.40,109.21,70.79,3762.00,0.00
257.6992220878601,92.85,109.97,70.03,4758.00,0.00
257.7721199989319,101.42,109.71,70.29,4726.00,0.00
257.8443651199341,109.65,108.45,71.55,4312.00,0.00
257.91598176956177,117.24,106.22,73.78,6514.00,0.00
257.9884600639343,123.50,103.23,76.77,4902.00,0.00
258.06004095077515,128.47,99.47,80.53,3880.00,0.00
258.13251304626465,131.65,95.28,84.72,1780.00,0.00
258.20404410362244,132.96,90.88,89.12,548.00,0.00
258.27605509757996,132.35,86.31,93.69,948.00,0.00
258.34823989868164,129.83,82.00,98.00,2270.00,0.00
258.42047691345215,125.53,78.09,101.91,3182.00,0.00
258.4928078651428,119.68,74.79,105.21,4122.00,0.00
258.56499099731445,112.57,72.27,107.73,5672.00,0.00
258.63741993904114,104.45,70.63,109.37,7108.00,0.00
258.7087559700012,96.07,70.01,109.99,6000.00,0.00
258.7806568145752,87.53,70.39,109.61,6206.00,0.00
258.8531639575958,79.25,71.80,108.20,6548.00,0.00
258.924813747406,71.99,74.08,105.92,6462.00,0.00
258.9968640804291,65.72,77.25,102.75,6874.00,0.00
259.0686960220337,61.03,81.03,98.97,5742.00,0.00
259.14049005508423,58.11,85.21,94.79,2578.00,0.00
259.2127060890198,57.00,89.69,90.31,2438.00,0.00
259.2838258743286,57.86,94.24,85.76,458.00,0.00
259.35641288757324,60.62,98.52,81.48,2932.00,0.00
259.429172039032,65.05,102.31,77.69,3422.00,0.00
259.50088810920715,71.05,105.53,74.47,3638.00,0.00
259.5730481147766,78.39,107.99,72.01,5098.00,0.00
259.64450001716614,86.36,109.48,70.52,5306.00,0.00
259.7169280052185,94.88,110.00,70.00,2588.00,0.00
259.78988695144653,103.52,109.49,70.51,3992.00,0.00
259.86166191101074,111.50,108.02,71.98,5174.00,0.00
259.9342851638794,118.85,105.57,74.43,6314.00,0.00
260.005784034729,124.88,102.36,77.64,4718.00,0.00
260.0775077342987,129.38,98.52,81.48,3756.00,0.00
260.1492989063263,132.14,94.24,85.76,970.00,0.00
