Used Foils:,stiff_foils
Waterspeed:,0.0
Frequency:,0.6
Heave Amplitude:,38
Pitch Amplitude:,30
Camber Amplitude,90
Pitch Phase,0
Camber Phase,0
Turn Rate,0
Test Duration, 10

Time,Heave_pos,Pitch_right,Pitch_left,Power_consumption,Noise
211.199542760849,57.00,90.00,90.00,420.00,0.00
212.25117683410645,57.16,92.71,87.29,132.00,0.00
212.32428979873657,59.46,100.62,79.38,5334.00,0.00
212.39633178710938,64.46,107.85,72.15,1884.00,0.00
212.46832489967346,71.63,113.66,66.34,1996.00,0.00
212.53998970985413,80.39,117.69,62.31,3756.00,0.00
212.61162877082825,90.33,119.77,60.23,712.00,0.00
212.6848850250244,100.76,119.65,60.35,4070.00,0.00
212.7568325996399,110.49,117.40,62.60,4952.00,0.00
212.82872581481934,119.22,113.12,66.88,3850.00,0.00
212.90164375305176,126.27,107.05,72.95,4156.00,0.00
212.97246479988098,130.87,99.91,80.09,1972.00,0.00
213.0444369316101,132.93,91.85,88.15,1798.00,0.00
213.11567068099976,132.17,83.75,96.25,374.00,0.00
213.18879389762878,128.75,76.21,103.79,1206.00,0.00
213.26078391075134,122.83,69.57,110.43,4906.00,0.00
213.333322763443,114.75,64.37,115.63,1714.00,0.00
213.4053897857666,105.46,61.16,118.84,5990.00,0.00
213.47673869132996,95.14,60.00,120.00,6050.00,0.00
213.54845881462097,84.95,61.07,118.93,5822.00,0.00
213.62090277671814,75.49,64.25,115.75,5768.00,0.00
213.69284582138062,67.46,69.33,110.67,5932.00,0.00
213.76490664482117,61.45,75.91,104.09,4870.00,0.00
213.83628487586975,57.89,83.53,96.47,1900.00,0.00
213.90755081176758,57.06,91.62,88.38,816.00,0.00
213.97987580299377,58.99,99.59,80.41,4804.00,0.00
214.0519518852234,63.57,106.86,73.14,1058.00,0.00
214.12400889396667,70.34,112.82,67.18,2808.00,0.00
214.19603371620178,79.12,117.26,62.74,3838.00,0.00
214.2680766582489,88.96,119.62,60.38,3480.00,0.00
214.3401758670807,99.10,119.82,60.18,4862.00,0.00
214.41278171539307,109.21,117.82,62.18,1078.00,0.00
214.48504495620728,118.14,113.80,66.20,3886.00,0.00
214.5575087070465,125.46,107.94,72.06,3920.00,0.00
214.62932085990906,130.38,100.94,79.06,2704.00,0.00
214.7010519504547,132.82,92.94,87.06,1672.00,0.00
214.7727189064026,132.43,84.82,95.18,314.00,0.00
214.84538173675537,129.36,77.19,102.81,3058.00,0.00
214.91787695884705,123.66,70.30,109.70,3716.00,0.00
214.98969984054565,115.92,64.96,115.04,4626.00,0.00
215.06194162368774,106.79,61.48,118.52,5790.00,0.00
215.13346982002258,96.53,60.02,119.98,3994.00,0.00
215.20561695098877,86.29,60.80,119.20,5596.00,0.00
215.27782773971558,76.69,63.71,116.29,5968.00,0.00
215.34985780715942,68.44,68.55,111.45,5764.00,0.00
215.42178988456726,62.12,74.96,105.04,5780.00,0.00
215.4932267665863,58.22,82.47,97.53,2042.00,0.00
215.56530570983887,57.01,90.53,89.47,1328.00,0.00
215.63666582107544,58.58,98.55,81.45,950.00,0.00
215.70952582359314,62.81,105.95,74.05,3414.00,0.00
215.78158974647522,69.41,112.18,67.82,3114.00,0.00
215.85363483428955,77.88,116.78,63.22,2814.00,0.00
215.92514276504517,87.60,119.43,60.57,3850.00,0.00
215.9975826740265,97.86,119.91,60.09,3568.00,0.00
216.07019782066345,107.92,118.21,61.79,2982.00,0.00
216.1421456336975,117.03,114.45,65.55,4690.00,0.00
216.21415662765503,124.52,108.89,71.11,1592.00,0.00
216.2865207195282,129.86,101.95,78.05,4096.00,0.00
216.35836696624756,132.66,94.02,85.98,3054.00,0.00
216.4304666519165,132.66,86.02,93.98,1662.00,0.00
216.50282979011536,129.87,78.09,101.91,5892.00,0.00
216.57506775856018,124.55,71.14,108.86,2740.00,0.00
216.647145986557,117.06,65.58,114.42,4886.00,0.00
216.71950483322144,107.96,61.80,118.20,4544.00,0.00
216.79120469093323,97.91,60.09,119.91,4736.00,0.00
216.86317586898804,87.50,60.59,119.41,5780.00,0.00
216.9352719783783,77.92,63.20,116.80,5036.00,0.00
217.0073368549347,69.34,67.87,112.13,4394.00,0.00
217.07937693595886,62.76,74.12,105.88,6124.00,0.00
217.1509189605713,58.59,81.41,98.59,4236.00,0.00
217.22294569015503,57.00,89.55,90.45,1192.00,0.00
217.29419875144958,58.24,97.61,82.39,400.00,0.00
217.36695289611816,62.10,105.01,74.99,3332.00,0.00
217.43910098075867,68.40,111.43,68.57,3506.00,0.00
217.5107889175415,76.78,116.33,63.67,3086.00,0.00
217.58301496505737,86.25,119.19,60.81,4752.00,0.00
217.65551781654358,96.48,119.98,60.02,3122.00,0.00
217.72779965400696,106.74,118.53,61.47,3906.00,0.00
217.8002109527588,115.88,115.06,64.94,4158.00,0.00
217.87241387367249,123.72,109.64,70.36,4066.00,0.00
217.94448280334473,129.34,102.84,77.16,4590.00,0.00
218.01616382598877,132.47,94.99,85.01,2274.00,0.00
218.08796191215515,132.81,86.99,93.01,848.00,0.00
218.16084575653076,130.35,78.99,101.01,5796.00,0.00
218.23254466056824,125.32,71.91,108.09,2370.00,0.00
218.30460476875305,118.18,66.23,113.77,5132.00,0.00
218.3763017654419,109.12,62.15,117.85,682.00,0.00
218.44853472709656,99.15,60.18,119.82,5318.00,0.00
218.52105379104614,88.87,60.39,119.61,5702.00,0.00
218.59285283088684,79.04,62.78,117.22,4260.00,0.00
218.66487669944763,70.27,67.22,112.78,6108.00,0.00
218.73708868026733,63.52,73.20,106.80,6016.00,0.00
218.808531999588,58.96,80.48,99.52,4156.00,0.00
218.880610704422,57.04,88.57,91.43,2264.00,0.00
218.95201897621155,57.95,96.65,83.35,318.00,0.00
219.02469086647034,61.50,104.15,75.85,5790.00,0.00
219.09704399108887,67.53,110.73,69.27,3276.00,0.00
219.16859698295593,75.70,115.84,64.16,3860.00,0.00
219.24098467826843,85.04,118.95,61.05,3892.00,0.00
219.31248998641968,95.24,120.00,60.00,528.00,0.00
219.3854489326477,105.56,118.82,61.18,2146.00,0.00
219.45784401893616,114.83,115.59,64.41,2602.00,0.00
219.53012466430664,122.90,110.37,69.63,3674.00,0.00
219.60222959518433,128.79,103.72,76.28,4246.00,0.00
219.67381286621094,132.22,96.07,83.93,1726.00,0.00
219.74608898162842,132.91,87.97,92.03,1262.00,0.00
219.81874990463257,130.79,79.91,100.09,5142.00,0.00
219.89076280593872,126.13,72.80,107.20,3620.00,0.00
219.96318173408508,119.04,66.76,113.24,3558.00,0.00
220.03500175476074,110.27,62.53,117.47,2860.00,0.00
220.1070897579193,100.38,60.30,119.70,4610.00,0.00
220.1789529323578,90.10,60.25,119.75,5842.00,0.00
220.25082659721375,80.17,62.38,117.62,5678.00,0.00
220.32286977767944,71.22,66.60,113.40,4128.00,0.00
220.39474272727966,64.23,72.40,107.60,5940.00,0.00
220.4668197631836,59.38,79.55,100.45,5312.00,0.00
220.53867864608765,57.12,87.59,92.41,2704.00,0.00
220.60994791984558,57.66,95.58,84.42,884.00,0.00
220.68294978141785,60.93,103.28,76.72,3656.00,0.00
220.75495767593384,66.78,110.09,69.91,2540.00,0.00
220.82699966430664,74.52,115.27,64.73,4364.00,0.00
220.89899969100952,83.85,118.68,61.32,5180.00,0.00
220.97114777565002,94.14,119.99,60.01,3106.00,0.00
221.04384684562683,104.36,119.08,60.92,3768.00,0.00
221.11609387397766,113.89,116.03,63.97,1256.00,0.00
221.1882607936859,122.04,111.08,68.92,2500.00,0.00
