Used Foils:,wide_foils_off
Waterspeed:,0.0
Frequency:,0.5
Heave Amplitude:,38
Pitch Amplitude:,55
Camber Amplitude,90
Pitch Phase,0
Camber Phase,0
Turn Rate,0
Test Duration,10

Time,Heave_pos,Pitch_right,Pitch_left,Power_consumption,Noise
159.1267478466034,57.00,90.00,90.00,368.00,0.00
160.2024610042572,57.45,98.43,81.57,2942.00,0.00
160.27495288848877,59.71,110.41,69.59,4718.00,0.00
160.34691095352173,63.77,121.34,58.66,4168.00,0.00
160.41891312599182,69.43,130.68,49.32,1078.00,0.00
160.4909529685974,76.28,137.86,42.14,2496.00,0.00
160.56316685676575,84.28,142.77,37.23,4122.00,0.00
160.6345329284668,92.73,144.90,35.10,848.00,0.00
160.7074339389801,101.18,144.27,35.73,3424.00,0.00
160.77972197532654,109.54,140.81,39.19,3162.00,0.00
160.85175490379333,117.05,134.80,45.20,2080.00,0.00
160.92377972602844,123.43,126.50,53.50,4192.00,0.00
160.9958038330078,128.36,116.34,63.66,4768.00,0.00
161.06768798828125,131.59,104.85,75.15,4082.00,0.00
161.13956785202026,132.96,92.59,87.41,2460.00,0.00
161.21142101287842,132.39,80.20,99.80,1200.00,0.00
161.28413105010986,129.87,68.16,111.84,1600.00,0.00
161.35645604133606,125.60,57.39,122.61,1364.00,0.00
161.42850995063782,119.86,48.40,131.60,4014.00,0.00
161.50023698806763,112.68,41.31,138.69,810.00,0.00
161.5730140209198,104.68,36.81,143.19,4420.00,0.00
161.64391779899597,96.19,35.03,144.97,3716.00,0.00
161.7161889076233,87.65,36.04,143.96,3604.00,0.00
161.7882719039917,79.47,39.80,140.20,4892.00,0.00
161.86026692390442,72.09,46.12,133.88,4912.00,0.00
161.9325339794159,65.87,54.68,125.32,6068.00,0.00
162.00465989112854,61.14,65.03,114.97,5472.00,0.00
162.0765597820282,58.14,76.66,103.34,4764.00,0.00
162.14768195152283,57.01,88.96,91.04,5020.00,0.00
162.21992707252502,57.81,101.32,78.68,1806.00,0.00
162.29202795028687,60.47,112.95,67.05,1812.00,0.00
162.36420512199402,64.97,123.71,56.29,4722.00,0.00
162.4362177848816,70.96,132.60,47.40,3214.00,0.00
162.5083999633789,78.18,139.32,40.68,2732.00,0.00
162.58032298088074,86.25,143.52,36.48,3742.00,0.00
162.6523687839508,94.76,145.00,35.00,3404.00,0.00
162.72462797164917,103.29,143.68,36.32,3506.00,0.00
162.7969479560852,111.40,139.62,40.38,2160.00,0.00
162.86917686462402,118.67,133.03,46.97,3992.00,0.00
162.9413549900055,124.81,124.12,55.88,3444.00,0.00
163.01402711868286,129.28,113.73,66.27,4454.00,0.00
163.08580207824707,132.11,101.83,78.17,4208.00,0.00
163.15756177902222,133.00,89.48,90.52,2668.00,0.00
163.22940492630005,131.95,77.16,102.84,3176.00,0.00
163.30195999145508,129.02,65.49,114.51,4270.00,0.00
163.37388277053833,124.36,55.07,124.93,2520.00,0.00
163.44618606567383,118.10,46.33,133.67,3936.00,0.00
163.5185899734497,110.85,40.02,139.98,1586.00,0.00
163.5905978679657,102.59,36.11,143.89,5836.00,0.00
163.66235280036926,94.05,35.02,144.98,5914.00,0.00
163.73405385017395,85.67,36.69,143.31,4512.00,0.00
163.80598711967468,77.54,41.15,138.85,5178.00,0.00
163.87819075584412,70.41,48.07,131.93,2894.00,0.00
163.9501781463623,64.54,57.12,122.88,6412.00,0.00
164.02241206169128,60.22,67.84,112.16,6358.00,0.00
164.09424209594727,57.67,79.69,100.31,5220.00,0.00
164.16591906547546,57.03,92.07,87.93,4624.00,0.00
164.23835277557373,58.32,104.35,75.65,2750.00,0.00
164.3103370666504,61.47,115.89,64.11,3168.00,0.00
164.38240885734558,66.26,125.98,54.02,4290.00,0.00
164.4541139602661,72.66,134.50,45.50,3756.00,0.00
164.52649188041687,80.13,140.61,39.39,3794.00,0.00
164.59766697883606,88.35,144.15,35.85,852.00,0.00
164.67042899131775,96.91,144.93,35.07,3094.00,0.00
164.7427101135254,105.37,142.91,37.09,5252.00,0.00
164.81487274169922,113.41,138.11,41.89,2198.00,0.00
164.88684701919556,120.31,131.03,48.97,3474.00,0.00
164.95969700813293,126.09,121.63,58.37,1298.00,0.00
165.03117275238037,130.20,110.73,69.27,5712.00,0.00
165.10294795036316,132.51,98.77,81.23,4810.00,0.00
165.17489576339722,132.92,86.37,93.63,1570.00,0.00
165.24783277511597,131.39,74.16,105.84,2592.00,0.00
165.3199179172516,128.01,62.75,117.25,1762.00,0.00
165.39206981658936,122.94,52.73,127.27,5030.00,0.00
165.46408796310425,116.36,44.51,135.49,4148.00,0.00
165.53640699386597,108.77,38.74,141.26,3618.00,0.00
165.6084270477295,100.47,35.57,144.43,4692.00,0.00
165.6801097393036,91.90,35.18,144.82,3732.00,0.00
165.7520010471344,83.48,37.59,142.41,1756.00,0.00
165.8240089416504,75.66,42.66,137.34,4738.00,0.00
165.89644074440002,68.81,50.14,129.86,5502.00,0.00
165.971519947052,63.24,59.80,120.20,5246.00,0.00
166.04058384895325,59.41,70.72,109.28,6678.00,0.00
166.1117808818817,57.33,82.76,97.24,4744.00,0.00
166.18382596969604,57.18,95.35,84.65,3434.00,0.00
166.2566101551056,58.93,107.32,72.68,2340.00,0.00
166.32917094230652,62.54,118.59,61.41,4228.00,0.00
166.4007260799408,67.88,128.52,51.48,2922.00,0.00
166.47302508354187,74.44,136.25,43.75,4264.00,0.00
166.54483485221863,82.13,141.75,38.25,3512.00,0.00
166.61688494682312,90.59,144.63,35.37,2378.00,0.00
166.6893548965454,99.17,144.67,35.33,5426.00,0.00
166.760822057724,107.42,141.98,38.02,354.00,0.00
166.83342099189758,115.26,136.53,43.47,2926.00,0.00
166.90568590164185,122.04,128.65,51.35,5570.00,0.00
166.97798490524292,127.27,119.03,60.97,2650.00,0.00
167.05027413368225,130.99,107.65,72.35,3620.00,0.00
167.12176394462585,132.81,95.52,84.48,6760.00,0.00
167.19375896453857,132.72,83.28,96.72,3630.00,0.00
167.2664759159088,130.67,71.04,108.96,5888.00,0.00
167.33848977088928,126.83,59.95,120.05,2578.00,0.00
167.41046595573425,121.36,50.38,129.62,2064.00,0.00
167.48283696174622,114.55,42.84,137.16,4942.00,0.00
167.55509877204895,106.63,37.64,142.36,4778.00,0.00
167.62687492370605,98.22,35.20,144.80,4342.00,0.00
167.69871377944946,89.76,35.52,144.48,1808.00,0.00
167.77097487449646,81.34,38.67,141.33,2782.00,0.00
167.8428988456726,73.74,44.41,135.59,5106.00,0.00
167.91494512557983,67.22,52.48,127.52,4830.00,0.00
167.98697805404663,62.11,62.45,117.55,6452.00,0.00
168.05920791625977,58.68,73.83,106.17,4064.00,0.00
168.13086009025574,57.10,86.03,93.97,5714.00,0.00
168.20247602462769,57.45,98.43,81.57,3686.00,0.00
168.27520203590393,59.71,110.41,69.59,3274.00,0.00
168.34721899032593,63.71,121.20,58.80,4772.00,0.00
168.41924405097961,69.43,130.68,49.32,1176.00,0.00
168.4911298751831,76.38,137.95,42.05,3784.00,0.00
168.5632839202881,84.28,142.77,37.23,2494.00,0.00
168.6362340450287,92.73,144.90,35.10,1454.00,0.00
168.70819306373596,101.30,144.24,35.76,3946.00,0.00
168.7797749042511,109.65,140.75,39.25,898.00,0.00
168.85236406326294,117.05,134.80,45.20,2998.00,0.00
168.92458081245422,123.50,126.37,53.63,2842.00,0.00
168.99645495414734,128.41,116.19,63.81,4230.00,0.00
169.06889081001282,131.62,104.68,75.32,4476.00,0.00
