Used Foils:,stiff_foils
Waterspeed:,0.0
Frequency:,0.6
Heave Amplitude:,40
Pitch Amplitude:,65
Camber Amplitude,90
Pitch Phase,0
Camber Phase,0
Turn Rate,0
Test Duration, 10

Time,Heave_pos,Pitch_right,Pitch_left,Power_consumption,Noise
315.29963874816895,74.94,141.91,38.09,3424.00,0.00
315.37162613868713,84.96,148.08,31.92,4922.00,0.00
315.4439067840576,95.70,149.99,30.01,1182.00,0.00
315.51632380485535,106.55,147.45,32.55,3228.00,0.00
315.58890891075134,116.26,140.82,39.18,1872.00,0.00
315.6608829498291,124.67,130.24,49.76,4762.00,0.00
315.73298382759094,130.78,116.84,63.16,5380.00,0.00
315.8055148124695,134.29,101.24,78.76,4008.00,0.00
315.87795901298523,134.87,85.25,94.75,4952.00,0.00
315.9497878551483,132.51,69.18,110.82,5352.00,0.00
316.02160906791687,127.42,54.85,125.15,3614.00,0.00
316.09394788742065,119.95,43.10,136.90,4266.00,0.00
316.16618299484253,110.65,34.79,145.21,4028.00,0.00
316.23856592178345,100.06,30.48,149.52,4834.00,0.00
316.311372756958,89.39,30.59,149.41,3772.00,0.00
316.38220596313477,78.98,35.03,144.97,3132.00,0.00
316.4544060230255,69.62,43.63,136.37,5394.00,0.00
316.52645993232727,62.35,55.35,124.65,5108.00,0.00
316.598345041275,57.30,69.96,110.04,6754.00,0.00
317.67059683799744,55.00,90.23,89.77,344.00,0.00
317.7434048652649,56.51,107.66,72.34,5410.00,0.00
317.81551599502563,60.83,123.79,56.21,5486.00,0.00
317.88742899894714,67.65,137.44,42.56,3670.00,0.00
317.96121191978455,76.48,147.62,32.38,4646.00,0.00
318.031142950058,86.67,153.57,26.43,2316.00,0.00
318.1032338142395,97.31,154.89,25.11,1336.00,0.00
318.17561197280884,108.08,151.43,28.57,4276.00,0.00
318.2484130859375,117.73,143.48,36.52,1048.00,0.00
318.3198449611664,125.72,131.62,48.38,5270.00,0.00
318.3921148777008,131.47,116.71,63.29,4860.00,0.00
318.4636790752411,134.56,99.60,80.40,4762.00,0.00
318.53576588630676,134.70,82.02,97.98,5380.00,0.00
318.6087408065796,131.98,65.24,114.76,4250.00,0.00
318.68137288093567,126.45,49.84,130.16,5252.00,0.00
318.75277495384216,118.67,37.61,142.39,4482.00,0.00
318.82454204559326,109.30,29.30,150.70,2678.00,0.00
318.89620995521545,98.61,25.27,154.73,3608.00,0.00
318.9686710834503,87.80,26.06,153.94,1798.00,0.00
319.04089307785034,77.52,31.54,148.46,4906.00,0.00
319.11293506622314,68.51,41.30,138.70,5324.00,0.00
319.1846899986267,61.44,54.62,125.38,5322.00,0.00
319.25689673423767,56.84,70.54,109.46,6776.00,0.00
319.3284387588501,55.02,87.88,92.12,5142.00,0.00
319.40041613578796,56.13,105.37,74.63,5498.00,0.00
319.4725389480591,60.09,121.74,58.26,3916.00,0.00
319.54567885398865,66.61,135.79,44.21,4418.00,0.00
319.61649799346924,75.20,146.48,33.52,5262.00,0.00
319.6884398460388,85.39,153.10,26.90,1006.00,0.00
319.76130270957947,96.01,154.98,25.02,3012.00,0.00
319.8329827785492,106.69,152.16,27.84,4738.00,0.00
319.90478801727295,116.64,144.66,35.34,2560.00,0.00
319.979820728302,124.77,133.41,46.59,4958.00,0.00
320.04949474334717,130.91,118.63,61.37,5636.00,0.00
320.1216320991516,134.32,101.94,78.06,5390.00,0.00
320.1932818889618,134.85,84.37,95.63,5040.00,0.00
320.26616287231445,132.46,67.22,112.78,4562.00,0.00
320.33810591697693,127.24,51.53,128.47,6010.00,0.00
320.41159105300903,119.83,39.04,140.96,4784.00,0.00
320.4827070236206,110.52,30.09,149.91,3260.00,0.00
320.55406379699707,99.91,25.49,154.51,3702.00,0.00
320.6265847682953,89.09,25.71,154.29,2560.00,0.00
320.69848680496216,78.70,30.64,149.36,3998.00,0.00
320.7703859806061,69.50,39.92,140.08,4584.00,0.00
320.84287190437317,62.17,52.86,127.14,4194.00,0.00
320.91452193260193,57.25,68.52,111.48,5450.00,0.00
320.98617601394653,55.09,85.76,94.24,5810.00,0.00
321.0584599971771,55.85,103.30,76.70,5712.00,0.00
321.1307621002197,59.47,119.87,60.13,3540.00,0.00
321.20258688926697,65.70,134.26,45.74,4762.00,0.00
321.2744519710541,74.08,145.40,34.60,5492.00,0.00
321.34682393074036,83.99,152.49,27.51,1900.00,0.00
321.4184808731079,94.70,155.00,25.00,3988.00,0.00
321.4912919998169,105.43,152.75,27.25,2316.00,0.00
321.5634038448334,115.40,145.91,34.09,2110.00,0.00
321.63576102256775,123.88,134.97,45.03,4706.00,0.00
321.70796179771423,130.32,120.52,59.48,2602.00,0.00
321.78010082244873,134.06,104.02,75.98,6570.00,0.00
321.85157203674316,134.94,86.49,93.51,4816.00,0.00
321.9244649410248,132.90,69.22,110.78,5550.00,0.00
321.99643182754517,128.00,53.26,126.74,5650.00,0.00
322.0683810710907,120.84,40.39,139.61,3902.00,0.00
322.14041781425476,111.57,30.84,149.16,4952.00,0.00
322.2124288082123,101.21,25.79,154.21,5380.00,0.00
322.28410387039185,90.39,25.43,154.57,4618.00,0.00
322.35641407966614,79.90,29.81,150.19,4046.00,0.00
322.4286527633667,70.52,38.59,141.41,3572.00,0.00
322.50093483924866,62.94,51.14,128.86,5544.00,0.00
322.57283782958984,57.70,66.53,113.47,5460.00,0.00
322.64514803886414,55.18,83.88,96.12,6740.00,0.00
322.71681690216064,55.63,101.46,78.54,6122.00,0.00
322.78887391090393,58.89,117.97,62.03,2966.00,0.00
322.8609848022461,64.83,132.68,47.32,5570.00,0.00
322.9327509403229,73.10,144.39,35.61,5410.00,0.00
323.0048978328705,82.74,151.87,28.13,2504.00,0.00
323.07689595222473,93.39,154.95,25.05,2930.00,0.00
323.1498210430145,104.31,153.21,26.79,2012.00,0.00
323.2217769622803,114.27,146.96,33.04,3110.00,0.00
323.2951707839966,123.07,136.31,43.69,4922.00,0.00
323.3660879135132,129.68,122.38,57.62,4926.00,0.00
323.4383907318115,133.76,106.09,73.91,6092.00,0.00
323.5104229450226,134.99,88.61,91.39,3824.00,0.00
323.5828239917755,133.25,71.00,109.00,3952.00,0.00
323.65476393699646,128.80,55.24,124.76,3670.00,0.00
323.72712779045105,121.72,41.62,138.38,3002.00,0.00
323.7994239330292,112.76,31.75,148.25,5606.00,0.00
323.87152075767517,102.35,26.11,153.89,1182.00,0.00
323.9429860115051,91.69,25.22,154.78,4292.00,0.00
324.01536798477173,80.98,29.12,150.88,1858.00,0.00
324.087110042572,71.45,37.46,142.54,4816.00,0.00
324.15929198265076,63.74,49.46,130.54,5072.00,0.00
324.2309730052948,58.13,64.79,115.21,5938.00,0.00
324.30219292640686,55.32,81.77,98.23,6338.00,0.00
324.374529838562,55.42,99.36,80.64,5784.00,0.00
324.44747495651245,58.41,116.26,63.74,3808.00,0.00
324.51907896995544,64.08,131.24,48.76,4588.00,0.00
324.5914487838745,72.02,143.20,36.80,4558.00,0.00
324.66327571868896,81.64,151.27,28.73,3398.00,0.00
324.73532485961914,92.24,154.84,25.16,4236.00,0.00
324.8077440261841,103.19,153.62,26.38,862.00,0.00
324.88038206100464,113.25,147.84,32.16,4264.00,0.00
324.9527268409729,122.24,137.61,42.39,2494.00,0.00
325.02470898628235,129.09,124.00,56.00,4752.00,0.00
325.0972340106964,133.45,107.90,72.10,5912.00,0.00
325.1687729358673,135.00,90.49,89.51,5292.00,0.00
325.2411890029907,133.58,72.81,107.19,4892.00,0.00
325.3134307861328,129.40,56.84,123.16,2134.00,0.00
325.3854019641876,122.56,42.90,137.10,3988.00,0.00
325.4578640460968,113.78,32.61,147.39,4800.00,0.00
325.53013372421265,103.63,26.53,153.47,1082.00,0.00
325.6015729904175,92.84,25.09,154.91,2716.00,0.00
325.67351508140564,82.21,28.41,151.59,2996.00,0.00
325.74552512168884,72.39,36.38,143.62,4880.00,0.00
325.81789898872375,64.47,48.00,132.00,6322.00,0.00
325.8900628089905,58.60,63.07,116.93,5262.00,0.00
325.96246695518494,55.48,79.91,100.09,6350.00,0.00
326.0333037376404,55.25,97.25,82.75,5436.00,0.00
326.10607385635376,57.96,114.53,65.47,4378.00,0.00
326.1794488430023,63.36,129.77,50.23,5354.00,0.00
326.25006794929504,70.96,141.96,38.04,1636.00,0.00
326.32170701026917,80.56,150.61,29.39,2978.00,0.00
326.3936767578125,91.09,154.69,25.31,4634.00,0.00
326.46640491485596,101.75,154.07,25.93,1468.00,0.00
326.5384840965271,112.21,148.67,31.33,4132.00,0.00
326.61071705818176,121.26,139.03,40.97,862.00,0.00
326.68324089050293,128.39,125.79,54.21,5406.00,0.00
326.75539803504944,133.07,109.93,70.07,4572.00,0.00
326.8272919654846,134.97,92.37,87.63,4112.00,0.00
326.89979100227356,133.90,74.87,105.13,5126.00,0.00
326.97223472595215,129.98,58.47,121.53,2526.00,0.00
327.044517993927,123.50,44.39,135.61,4778.00,0.00
327.1163318157196,114.80,33.52,146.48,5532.00,0.00
327.18867111206055,104.90,27.02,152.98,3068.00,0.00
327.2623927593231,93.99,25.02,154.98,2788.00,0.00
327.33232498168945,83.31,27.84,152.16,3208.00,0.00
327.40384888648987,73.48,35.21,144.79,3136.00,0.00
327.4764199256897,65.23,46.59,133.41,5686.00,0.00
327.548593044281,59.16,61.15,118.85,4850.00,0.00
327.62056398391724,55.71,77.82,102.18,7124.00,0.00
327.692400932312,55.14,95.39,84.61,4998.00,0.00
327.76485991477966,57.54,112.79,67.22,4742.00,0.00
327.83661794662476,62.67,128.27,51.73,5098.00,0.00
327.9086298942566,70.05,140.80,39.20,3002.00,0.00
327.9809579849243,79.48,149.91,30.09,4830.00,0.00
328.0529408454895,89.94,154.48,25.52,2746.00,0.00
328.1255729198456,100.61,154.36,25.64,2516.00,0.00
328.19769501686096,111.16,149.46,30.54,2094.00,0.00
328.27019786834717,120.38,140.24,39.76,3562.00,0.00
