Used Foils:,stiff_foils
Waterspeed:,0.0
Frequency:,0.6
Heave Amplitude:,40
Pitch Amplitude:,60
Camber Amplitude,90
Pitch Phase,0
Camber Phase,0
Turn Rate,0
Test Duration,10

Time,Heave_pos,Pitch_right,Pitch_left,Power_consumption,Noise
101.32332706451416,106.79,147.34,32.66,0.00,0.00
101.39526796340942,119.40,137.55,42.45,0.00,0.00
101.466952085495,129.04,121.51,58.49,0.00,0.00
101.53876185417175,134.27,101.39,78.61,0.00,0.00
101.60988092422485,134.45,80.09,99.91,0.00,0.00
101.68181204795837,129.56,59.78,120.22,0.00,0.00
101.75375294685364,120.19,43.39,136.61,4.00,0.00
101.82508707046509,107.74,33.13,146.87,0.00,0.00
101.8964250087738,93.49,30.04,149.96,0.00,0.00
101.96777009963989,79.44,34.73,145.27,4.00,0.00
102.0395770072937,67.54,46.37,133.63,4.00,0.00
102.11125898361206,59.02,63.77,116.23,0.00,0.00
103.1828441619873,55.00,90.30,89.70,0.00,0.00
103.25489592552185,56.51,106.30,73.70,0.00,0.00
103.32631707191467,60.75,121.00,59.00,0.00,0.00
103.39762020111084,67.44,133.48,46.52,0.00,0.00
103.46924304962158,76.22,142.97,37.03,0.00,0.00
103.54060101509094,86.37,148.59,31.41,0.00,0.00
103.61236190795898,96.86,149.94,30.06,0.00,0.00
103.68425703048706,107.50,146.99,33.01,0.00,0.00
103.75595498085022,117.23,139.88,40.12,0.00,0.00
103.82779788970947,125.24,129.28,50.72,0.00,0.00
103.89897298812866,131.15,115.68,64.32,0.00,0.00
103.97080111503601,134.42,100.20,79.80,4.00,0.00
104.04162406921387,134.81,84.20,95.80,0.00,0.00
104.11363387107849,132.32,68.40,111.60,0.00,0.00
104.18536901473999,127.09,54.19,125.81,0.00,0.00
104.2568621635437,119.64,42.73,137.27,0.00,0.00
104.328773021698,110.28,34.55,145.45,0.00,0.00
104.39970183372498,99.96,30.46,149.54,0.00,0.00
104.47080588340759,89.29,30.61,149.39,0.00,0.00
104.54271817207336,78.88,35.09,144.91,0.00,0.00
104.61408400535583,69.66,43.58,136.42,0.00,0.00
104.68562078475952,62.38,55.28,124.72,0.00,0.00
104.75701212882996,57.36,69.68,110.32,0.00,0.00
104.82782101631165,55.12,85.33,94.67,0.00,0.00
104.89982104301453,55.72,101.32,78.68,0.00,0.00
104.97130417823792,59.18,116.70,63.30,0.00,0.00
105.04266691207886,65.26,130.13,49.87,0.00,0.00
105.11441707611084,73.27,140.37,39.63,0.00,0.00
105.18570590019226,83.07,147.27,32.73,0.00,0.00
105.25709414482117,93.74,149.97,30.03,0.00,0.00
105.32950806617737,104.36,148.33,31.67,0.00,0.00
105.40116596221924,114.45,142.43,37.57,0.00,0.00
105.47276711463928,123.11,132.69,47.31,4.00,0.00
105.54438495635986,129.71,119.83,60.17,0.00,0.00
105.61616396903992,133.73,104.99,75.01,0.00,0.00
105.68695211410522,134.99,88.87,91.13,0.00,0.00
105.75916886329651,133.33,72.83,107.17,4.00,0.00
105.8308961391449,128.93,58.23,121.77,4.00,0.00
105.90243291854858,122.12,45.90,134.10,0.00,0.00
105.97422409057617,113.25,36.61,143.39,0.00,0.00
106.0454261302948,103.19,31.27,148.73,0.00,0.00
106.11679697036743,92.39,30.13,149.87,0.00,0.00
106.18819189071655,81.78,33.37,146.63,0.00,0.00
106.25982713699341,72.27,40.63,139.37,0.00,0.00
106.33150887489319,64.28,51.58,128.42,0.00,0.00
106.40283679962158,58.53,65.34,114.66,0.00,0.00
106.47384905815125,55.51,80.47,99.53,0.00,0.00
106.54505586624146,55.25,96.70,83.30,0.00,0.00
106.61718201637268,57.90,112.44,67.56,0.00,0.00
106.68847799301147,63.18,126.36,53.64,0.00,0.00
106.75971508026123,70.72,137.69,42.31,0.00,0.00
106.83122706413269,80.13,145.70,34.30,0.00,0.00
106.90273594856262,90.49,149.62,30.38,0.00,0.00
106.97468781471252,101.31,149.25,30.75,0.00,0.00
107.04631686210632,111.67,144.54,35.46,0.00,0.00
107.11792993545532,120.69,135.99,44.01,0.00,0.00
107.19008088111877,127.97,123.97,56.03,4.00,0.00
107.26138210296631,132.84,109.47,70.53,4.00,0.00
107.33265399932861,134.92,93.77,86.23,0.00,0.00
107.4046859741211,134.13,77.57,102.43,4.00,0.00
107.47638297080994,130.48,62.29,117.71,0.00,0.00
107.54824495315552,124.33,49.20,130.80,0.00,0.00
107.61988115310669,115.96,38.90,141.10,0.00,0.00
107.6915009021759,106.06,32.34,147.66,0.00,0.00
107.76240301132202,95.50,30.00,150.00,0.00,0.00
107.83375287055969,84.91,31.94,148.06,0.00,0.00
107.90540599822998,74.90,38.13,141.87,0.00,0.00
107.97703313827515,66.36,48.11,131.89,0.00,0.00
108.04844212532043,60.00,60.96,119.04,4.00,0.00
108.12012600898743,56.09,76.10,103.90,0.00,0.00
108.19110012054443,55.03,92.26,87.74,0.00,0.00
108.26282405853271,56.81,107.82,72.18,4.00,0.00
108.33452296257019,61.39,122.53,57.47,0.00,0.00
108.4059739112854,68.43,134.86,45.14,0.00,0.00
108.47748017311096,77.29,143.80,36.20,0.00,0.00
108.54877996444702,87.55,148.95,31.05,0.00,0.00
108.62073802947998,98.21,149.81,30.19,0.00,0.00
108.69270896911621,108.64,146.40,33.60,0.00,0.00
108.76453113555908,118.23,138.85,41.15,0.00,0.00
108.83614301681519,126.11,127.72,52.28,0.00,0.00
108.90750098228455,131.65,114.04,65.96,0.00,0.00
108.97890496253967,134.60,98.42,81.58,0.00,0.00
109.05050110816956,134.66,82.18,97.82,0.00,0.00
109.12272000312805,131.87,66.73,113.27,4.00,0.00
109.19466209411621,126.36,52.75,127.25,0.00,0.00
109.26628398895264,118.55,41.50,138.50,0.00,0.00
109.33786988258362,109.16,33.89,146.11,4.00,0.00
109.40869283676147,98.61,30.25,149.75,0.00,0.00
109.48046398162842,87.80,30.98,149.02,0.00,0.00
109.55221486091614,77.65,35.94,144.06,4.00,0.00
109.62340116500854,68.62,44.89,135.11,0.00,0.00
109.69518089294434,61.53,57.15,122.85,4.00,0.00
109.76675391197205,56.88,71.82,108.18,0.00,0.00
109.83789706230164,55.04,87.36,92.64,0.00,0.00
109.90956711769104,56.03,103.53,76.47,0.00,0.00
109.98100280761719,59.88,118.71,61.29,0.00,0.00
110.05259418487549,66.19,131.62,48.38,4.00,0.00
110.12391996383667,74.68,141.68,38.32,0.00,0.00
110.19546794891357,84.52,147.90,32.10,0.00,0.00
110.26731896400452,95.10,150.00,30.00,0.00,0.00
110.33932304382324,105.82,147.76,32.24,0.00,0.00
110.4107518196106,115.75,141.30,38.70,0.00,0.00
110.48250889778137,124.06,131.24,48.76,0.00,0.00
110.55417585372925,130.36,118.04,61.96,4.00,0.00
110.62589502334595,134.08,102.79,77.21,4.00,0.00
110.69665813446045,134.94,86.83,93.17,0.00,0.00
110.7689938545227,132.92,70.89,109.11,0.00,0.00
110.84036016464233,128.11,56.34,123.66,0.00,0.00
110.91208600997925,121.00,44.40,135.60,0.00,0.00
110.98377585411072,111.89,35.61,144.39,0.00,0.00
111.05542802810669,101.55,30.81,149.19,0.00,0.00
111.12673091888428,90.89,30.32,149.68,0.00,0.00
111.19800591468811,80.37,34.16,145.84,0.00,0.00
