Used Foils:,wide_foils_off
Waterspeed:,0.0
Frequency:,0.4
Heave Amplitude:,38
Pitch Amplitude:,35
Camber Amplitude,90
Pitch Phase,0
Camber Phase,0
Turn Rate,0
Test Duration,10

Time,Heave_pos,Pitch_right,Pitch_left,Power_consumption,Noise
82.10831785202026,57.00,90.00,90.00,420.00,0.00
82.18079376220703,57.64,96.39,83.61,1482.00,0.00
82.25317692756653,59.50,102.47,77.53,1088.00,0.00
82.32557487487793,62.46,108.08,71.92,1390.00,0.00
82.39744782447815,66.59,113.24,66.76,3448.00,0.00
82.46904802322388,71.60,117.57,62.43,4918.00,0.00
82.54114484786987,77.28,120.96,59.04,4064.00,0.00
82.6127438545227,83.62,123.39,56.61,1966.00,0.00
82.68473386764526,90.43,124.75,55.25,3152.00,0.00
82.75678992271423,97.20,124.94,55.06,3566.00,0.00
82.82936096191406,103.99,124.01,55.99,3548.00,0.00
82.9015760421753,110.57,121.93,58.07,5560.00,0.00
82.97390580177307,116.48,118.87,61.13,3202.00,0.00
83.04603290557861,121.84,114.78,65.22,4354.00,0.00
83.1178970336914,126.24,109.93,70.07,1530.00,0.00
83.18985605239868,129.58,104.50,75.50,2152.00,0.00
83.26131415367126,131.88,98.45,81.55,2814.00,0.00
83.33354187011719,132.93,92.20,87.80,1328.00,0.00
83.40574193000793,132.74,85.88,94.12,1852.00,0.00
83.47819590568542,131.31,79.69,100.31,6232.00,0.00
83.5496039390564,128.71,73.84,106.16,694.00,0.00
83.62223601341248,125.00,68.51,111.49,1508.00,0.00
83.69424200057983,120.31,63.89,116.11,2560.00,0.00
83.76633405685425,114.79,60.12,119.88,4978.00,0.00
83.83869194984436,108.54,57.30,122.70,4942.00,0.00
83.91092777252197,102.03,55.60,124.40,2910.00,0.00
83.98200392723083,95.19,55.00,125.00,4178.00,0.00
84.054025888443,88.26,55.56,124.44,2098.00,0.00
84.12578105926514,81.72,57.21,122.79,5036.00,0.00
84.19781398773193,75.53,59.94,120.06,5044.00,0.00
84.26986074447632,69.91,63.72,116.28,4654.00,0.00
84.3423318862915,65.24,68.24,111.76,4598.00,0.00
84.41447186470032,61.47,73.53,106.47,2658.00,0.00
84.48621797561646,58.77,79.44,100.56,5996.00,0.00
84.55787897109985,57.30,85.61,94.39,4716.00,0.00
84.62930297851562,57.05,91.85,88.15,904.00,0.00
84.70117998123169,58.03,98.11,81.89,1560.00,0.00
84.7737169265747,60.26,104.18,75.82,1236.00,0.00
84.84563398361206,63.54,109.64,70.36,2460.00,0.00
84.91781401634216,67.89,114.53,65.47,4614.00,0.00
84.98958683013916,73.13,118.62,61.38,3588.00,0.00
85.06189703941345,79.08,121.78,58.22,3686.00,0.00
85.13356494903564,85.55,123.90,56.10,2202.00,0.00
85.20527386665344,92.33,124.91,55.09,4436.00,0.00
85.27761793136597,99.19,124.79,55.21,2490.00,0.00
85.34990286827087,105.92,123.52,56.48,522.00,0.00
85.42255592346191,112.38,121.13,58.87,4070.00,0.00
85.49390387535095,118.10,117.79,62.21,956.00,0.00
85.56680297851562,123.22,113.44,66.56,3050.00,0.00
85.63904094696045,127.34,108.38,71.62,2588.00,0.00
85.71061992645264,130.40,102.72,77.28,948.00,0.00
85.78270101547241,132.31,96.64,83.36,1464.00,0.00
85.85464406013489,133.00,90.35,89.65,1180.00,0.00
85.92702102661133,132.43,83.96,96.04,1382.00,0.00
85.99972987174988,130.67,77.94,102.06,3398.00,0.00
86.07082796096802,127.73,72.22,107.78,910.00,0.00
86.14349794387817,123.66,67.02,112.98,2870.00,0.00
86.21517896652222,118.78,62.70,117.30,1798.00,0.00
86.28692507743835,113.06,59.20,120.80,440.00,0.00
86.35993695259094,106.65,56.69,123.31,5928.00,0.00
86.43193984031677,100.05,55.31,124.69,3656.00,0.00
86.50326490402222,93.09,55.04,124.96,3844.00,0.00
86.57502388954163,86.29,55.93,124.07,1770.00,0.00
86.64723992347717,79.86,57.90,122.10,4482.00,0.00
86.71965789794922,73.76,60.98,119.02,4518.00,0.00
86.79126000404358,68.44,64.97,115.03,2346.00,0.00
86.86336278915405,63.98,69.78,110.22,3228.00,0.00
86.93549489974976,60.54,75.26,104.74,1144.00,0.00
87.00699996948242,58.22,81.21,98.79,2170.00,0.00
87.07897591590881,57.10,87.45,92.55,2258.00,0.00
87.15021085739136,57.21,93.69,86.31,548.00,0.00
87.22312593460083,58.58,99.98,80.02,462.00,0.00
87.29435396194458,61.12,105.85,74.15,748.00,0.00
87.36671495437622,64.71,111.14,68.86,1128.00,0.00
87.43889379501343,69.34,115.81,64.19,2510.00,0.00
87.51104211807251,74.88,119.69,60.31,1806.00,0.00
87.58310890197754,80.92,122.51,57.49,4204.00,0.00
87.6544098854065,87.50,124.31,55.69,522.00,0.00
87.72664594650269,94.33,124.99,55.01,2834.00,0.00
87.7995069026947,101.18,124.53,55.47,3480.00,0.00
87.87175703048706,107.83,122.95,57.05,3342.00,0.00
87.94394183158875,114.14,120.24,59.76,4158.00,0.00
88.01549172401428,119.73,116.57,63.43,920.00,0.00
88.08807706832886,124.52,112.04,67.96,4208.00,0.00
88.1603147983551,128.35,106.78,73.22,2724.00,0.00
88.23226594924927,131.11,100.90,79.10,1708.00,0.00
88.3035728931427,132.64,94.82,85.18,3630.00,0.00
88.37531399726868,132.97,88.51,91.49,960.00,0.00
88.44796800613403,132.03,82.15,97.85,1218.00,0.00
88.52068591117859,129.93,76.22,103.78,1940.00,0.00
88.5926148891449,126.67,70.66,109.34,3234.00,0.00
88.66464900970459,122.31,65.66,114.34,2136.00,0.00
88.73823475837708,117.18,61.58,118.42,4070.00,0.00
88.80872893333435,111.18,58.33,121.67,3064.00,0.00
88.88072299957275,104.73,56.17,123.83,4296.00,0.00
88.95247197151184,97.86,55.10,124.90,1612.00,0.00
89.02464199066162,91.09,55.19,124.81,2632.00,0.00
89.09640979766846,84.35,56.40,123.60,452.00,0.00
89.16895580291748,77.88,58.76,121.24,4726.00,0.00
89.2412600517273,72.13,62.05,117.95,4332.00,0.00
89.31310296058655,67.04,66.30,113.70,3676.00,0.00
89.38486790657043,62.81,71.39,108.61,3286.00,0.00
89.45693588256836,59.74,76.95,103.05,1084.00,0.00
89.52844071388245,57.77,83.01,96.99,1340.00,0.00
89.60042810440063,57.01,89.38,90.62,6354.00,0.00
89.67189192771912,57.49,95.61,84.39,550.00,0.00
89.7445797920227,59.20,101.73,78.27,5138.00,0.00
89.81585693359375,62.08,107.47,72.53,442.00,0.00
89.88823390007019,65.97,112.58,67.42,1888.00,0.00
89.96119403839111,70.93,117.08,62.92,3922.00,0.00
90.03169298171997,76.61,120.63,59.37,940.00,0.00
90.10399794578552,82.89,123.18,56.82,3490.00,0.00
90.17599391937256,89.57,124.64,55.36,476.00,0.00
90.2482979297638,96.43,124.98,55.02,3962.00,0.00
90.32069897651672,103.24,124.17,55.83,2182.00,0.00
90.3926751613617,109.78,122.24,57.76,1990.00,0.00
90.46508383750916,115.84,119.27,60.73,3414.00,0.00
90.53679490089417,121.29,115.27,64.73,956.00,0.00
90.6098198890686,125.74,110.57,69.43,2310.00,0.00
90.68185710906982,129.30,105.06,74.94,2136.00,0.00
90.75353980064392,131.68,99.13,80.87,1410.00,0.00
90.82542490959167,132.87,92.90,87.10,2192.00,0.00
90.89688181877136,132.82,86.57,93.43,820.00,0.00
90.96880793571472,131.53,80.36,99.64,822.00,0.00
91.04198503494263,129.01,74.39,105.61,1472.00,0.00
