Used Foils:,stiff_foils
Waterspeed:,0.0
Frequency:,0.5
Heave Amplitude:,40
Pitch Amplitude:,40
Camber Amplitude,90
Pitch Phase,0
Camber Phase,0
Turn Rate,0
Test Duration, 10

Time,Heave_pos,Pitch_right,Pitch_left,Power_consumption,Noise
82.13896679878235,55.00,90.11,89.89,134.00,0.00
82.21164393424988,56.05,99.09,80.91,1914.00,0.00
82.28361392021179,59.02,107.48,72.52,3074.00,0.00
82.35586476325989,63.94,115.21,64.79,3854.00,0.00
82.42932105064392,70.38,121.53,58.47,1432.00,0.00
82.4998869895935,77.97,126.19,53.81,1524.00,0.00
82.57175993919373,86.52,129.09,50.91,1580.00,0.00
82.64458084106445,95.63,130.00,50.00,3768.00,0.00
82.71907687187195,104.46,128.87,51.13,4200.00,0.00
82.78853487968445,113.05,125.70,54.30,3280.00,0.00
82.86058402061462,120.59,120.74,59.26,2986.00,0.00
82.93280482292175,126.76,114.32,65.68,2196.00,0.00
83.0048017501831,131.46,106.46,73.54,4106.00,0.00
83.07742381095886,134.22,97.87,82.13,3050.00,0.00
83.14780879020691,134.99,88.99,91.01,976.00,0.00
83.2210488319397,133.71,79.93,100.07,2360.00,0.00
83.29308891296387,130.47,71.51,108.49,1320.00,0.00
83.36487674713135,125.33,63.93,116.07,2842.00,0.00
83.43677806854248,118.82,57.86,122.14,4970.00,0.00
83.50900197029114,111.00,53.34,126.66,1310.00,0.00
83.5813889503479,102.25,50.66,129.34,4780.00,0.00
83.65239691734314,93.37,50.03,129.97,3726.00,0.00
83.72506403923035,84.32,51.45,128.55,3856.00,0.00
83.79707598686218,75.95,54.83,125.17,4768.00,0.00
83.86876487731934,68.64,59.91,120.09,4382.00,0.00
83.941162109375,62.49,66.69,113.31,4388.00,0.00
84.01376295089722,58.09,74.58,105.42,1694.00,0.00
84.0844829082489,55.60,83.12,96.88,3194.00,0.00
84.15618181228638,55.06,92.14,87.86,1694.00,0.00
84.22790312767029,56.59,101.16,78.84,902.00,0.00
84.300696849823,60.07,109.49,70.51,2234.00,0.00
84.37272000312805,65.25,116.73,63.27,1596.00,0.00
84.44496393203735,72.10,122.80,57.20,2812.00,0.00
84.51703786849976,80.04,127.10,52.90,2858.00,0.00
84.58890986442566,88.62,129.49,50.51,2242.00,0.00
84.6610209941864,97.76,129.90,50.10,4388.00,0.00
84.73318004608154,106.64,128.27,51.73,566.00,0.00
84.8055489063263,114.82,124.75,55.25,2868.00,0.00
84.87973690032959,122.20,119.33,60.67,3860.00,0.00
84.9499249458313,128.15,112.38,67.62,4280.00,0.00
85.02226901054382,132.28,104.49,75.51,1888.00,0.00
85.09451079368591,134.60,95.64,84.36,1688.00,0.00
85.16639399528503,134.86,86.61,93.39,1930.00,0.00
85.23873901367188,133.12,77.88,102.12,5242.00,0.00
85.31146597862244,129.37,69.53,110.47,1328.00,0.00
85.38301706314087,123.90,62.34,117.66,3900.00,0.00
85.45505595207214,116.86,56.50,123.50,1962.00,0.00
85.52688193321228,108.90,52.49,127.51,4928.00,0.00
85.59891271591187,100.14,50.33,129.67,3774.00,0.00
85.67054486274719,90.99,50.20,129.80,3892.00,0.00
85.74298977851868,82.28,52.08,127.92,2674.00,0.00
85.81480979919434,73.99,55.96,124.04,1858.00,0.00
85.88693881034851,66.89,61.54,118.46,4696.00,0.00
85.9595627784729,61.29,68.46,111.54,5332.00,0.00
86.03080201148987,57.28,76.69,103.31,3322.00,0.00
86.1023359298706,55.26,85.49,94.51,4660.00,0.00
86.17383575439453,55.24,94.39,85.61,656.00,0.00
86.24718284606934,57.24,103.19,76.81,4074.00,0.00
86.31949400901794,61.23,111.43,68.57,2290.00,0.00
86.39054894447327,66.80,118.37,61.63,1986.00,0.00
86.4632887840271,73.89,123.97,56.03,3946.00,0.00
86.53436994552612,82.16,127.88,52.12,744.00,0.00
86.60645484924316,90.99,129.80,50.20,1674.00,0.00
86.67905497550964,99.89,129.70,50.30,4398.00,0.00
86.75145101547241,108.79,127.55,52.45,2192.00,0.00
86.82339215278625,116.86,123.50,56.50,3624.00,0.00
86.8960747718811,123.81,117.75,62.25,1052.00,0.00
86.96829080581665,129.30,110.58,69.42,4626.00,0.00
87.0401828289032,133.08,102.24,77.76,1642.00,0.00
87.11209201812744,134.85,93.51,86.49,4128.00,0.00
87.18400001525879,134.62,84.49,95.51,3106.00,0.00
87.25664377212524,132.33,75.63,104.37,2264.00,0.00
87.32978796958923,128.22,67.72,112.28,3310.00,0.00
87.40093898773193,122.29,60.76,119.24,4880.00,0.00
87.47289299964905,115.04,55.38,124.62,3736.00,0.00
87.54583096504211,106.64,51.73,128.27,5246.00,0.00
87.61634182929993,97.89,50.10,129.90,3372.00,0.00
87.68832802772522,88.74,50.49,129.51,3084.00,0.00
87.76061296463013,80.04,52.90,127.10,4764.00,0.00
87.83312010765076,72.21,57.13,122.87,4810.00,0.00
87.90493607521057,65.33,63.17,116.83,4772.00,0.00
87.97707295417786,60.07,70.51,109.49,4132.00,0.00
88.04914498329163,56.62,78.72,101.28,4128.00,0.00
88.12052202224731,55.06,87.74,92.26,4394.00,0.00
88.19253492355347,55.57,96.75,83.25,1318.00,0.00
88.26471400260925,58.04,105.31,74.69,3376.00,0.00
88.33683800697327,62.49,113.31,66.69,1636.00,0.00
88.40881180763245,68.55,120.00,60.00,2180.00,0.00
88.48113012313843,75.84,125.11,54.89,3522.00,0.00
88.55269694328308,84.20,128.52,51.48,3404.00,0.00
88.62514805793762,93.24,129.96,50.04,3422.00,0.00
88.69868993759155,102.25,129.34,50.66,2530.00,0.00
88.76988983154297,110.89,126.71,53.29,2216.00,0.00
88.84220504760742,118.71,122.21,57.79,4892.00,0.00
88.9142370223999,125.42,115.98,64.02,2804.00,0.00
88.98658800125122,130.41,108.61,71.39,2310.00,0.00
89.05853796005249,133.71,100.07,79.93,1180.00,0.00
89.13018298149109,134.98,91.13,88.87,2340.00,0.00
89.20223689079285,134.22,82.13,97.87,1346.00,0.00
89.2747688293457,131.46,73.54,106.46,1232.00,0.00
89.34767699241638,126.84,65.78,114.22,3404.00,0.00
89.41925477981567,120.59,59.26,120.74,4666.00,0.00
89.49138188362122,113.05,54.30,125.70,4276.00,0.00
89.56341576576233,104.46,51.13,128.87,5224.00,0.00
89.63451600074768,95.50,50.00,130.00,484.00,0.00
89.70677304267883,86.52,50.91,129.09,4676.00,0.00
89.77878308296204,77.97,53.81,126.19,5010.00,0.00
89.8508849143982,70.29,58.55,121.45,4896.00,0.00
89.92351794242859,63.86,64.89,115.11,4450.00,0.00
89.9961507320404,59.02,72.52,107.48,2552.00,0.00
90.06711506843567,56.02,81.03,98.97,4214.00,0.00
90.13861894607544,55.00,90.00,90.00,2058.00,0.00
90.21025896072388,56.02,98.97,81.03,2704.00,0.00
90.28348875045776,59.02,107.48,72.52,3922.00,0.00
90.35456585884094,63.78,115.01,64.99,812.00,0.00
90.4271469116211,70.29,121.45,58.55,2828.00,0.00
90.49869394302368,77.97,126.19,53.81,652.00,0.00
90.5711019039154,86.40,129.06,50.94,2294.00,0.00
90.64305377006531,95.50,130.00,50.00,3546.00,0.00
90.71512508392334,104.46,128.87,51.13,344.00,0.00
90.78789782524109,113.05,125.70,54.30,3902.00,0.00
90.86047911643982,120.50,120.82,59.18,1836.00,0.00
90.93272590637207,126.84,114.22,65.78,2130.00,0.00
91.00477075576782,131.46,106.46,73.54,4218.00,0.00
91.07618188858032,134.22,97.87,82.13,1464.00,0.00
91.14747095108032,134.98,88.87,91.13,950.00,0.00
91.22140097618103,133.71,79.93,100.07,1344.00,0.00
91.29246807098389,130.47,71.51,108.49,1304.00,0.00
91.36479902267456,125.42,64.02,115.98,2638.00,0.00
91.43678689002991,118.71,57.79,122.21,1046.00,0.00
91.50928497314453,111.00,53.34,126.66,2370.00,0.00
91.5817608833313,102.25,50.66,129.34,5296.00,0.00
91.65343284606934,93.24,50.04,129.96,2680.00,0.00
91.72482395172119,84.20,51.48,128.52,4706.00,0.00
91.7969560623169,75.95,54.83,125.17,4348.00,0.00
91.86924695968628,68.55,60.00,120.00,3176.00,0.00
91.94128084182739,62.42,66.79,113.21,4548.00,0.00
92.0142548084259,58.09,74.58,105.42,2470.00,0.00
92.08502411842346,55.57,83.25,96.75,3018.00,0.00
92.15664911270142,55.07,92.39,87.61,1192.00,0.00
92.22900891304016,56.59,101.16,78.84,4962.00,0.00
92.3013048171997,60.07,109.49,70.51,1192.00,0.00
92.37362170219421,65.41,116.92,63.08,2834.00,0.00
92.44605708122253,72.10,122.80,57.20,2642.00,0.00
92.51771879196167,80.04,127.10,52.90,1662.00,0.00
92.58975291252136,88.87,129.53,50.47,1754.00,0.00
92.6628348827362,97.76,129.90,50.10,4148.00,0.00
92.73448514938354,106.76,128.23,51.77,1998.00,0.00
92.8066828250885,115.04,124.62,55.38,2644.00,0.00
92.87887907028198,122.38,119.16,60.84,2270.00,0.00
92.95095300674438,128.15,112.38,67.62,4502.00,0.00
93.02287697792053,132.37,104.26,75.74,2002.00,0.00
93.09461092948914,134.62,95.51,84.49,1354.00,0.00
93.16684293746948,134.85,86.49,93.51,2136.00,0.00
93.23916506767273,133.04,77.64,102.36,3566.00,0.00
93.31174206733704,129.30,69.42,110.58,1110.00,0.00
93.38374996185303,123.81,62.25,117.75,3892.00,0.00
93.45607995986938,116.86,56.50,123.50,3230.00,0.00
93.52804684638977,108.67,52.41,127.59,4672.00,0.00
93.60034489631653,100.01,50.32,129.68,3576.00,0.00
93.6716239452362,90.86,50.21,129.79,3772.00,0.00
93.74399280548096,82.04,52.16,127.84,3592.00,0.00
93.81785082817078,73.78,56.09,123.91,2510.00,0.00
93.88799595832825,66.80,61.63,118.37,5126.00,0.00
93.9600830078125,61.16,68.67,111.33,3962.00,0.00
94.03213882446289,57.20,76.92,103.08,3330.00,0.00
94.10375881195068,55.24,85.61,94.39,3746.00,0.00
