Used Foils:,stiff_foils
Waterspeed:,0.0
Frequency:,0.4
Heave Amplitude:,40
Pitch Amplitude:,60
Camber Amplitude,90
Pitch Phase,0
Camber Phase,0
Turn Rate,0
Test Duration,10

Time,Heave_pos,Pitch_right,Pitch_left,Power_consumption,Noise
110.10820484161377,60.86,58.75,121.25,7562.00,0.00
110.18052101135254,56.52,73.62,106.38,4382.00,0.00
111.22690176963806,55.00,90.23,89.77,340.00,0.00
111.30009412765503,55.65,100.80,79.20,4732.00,0.00
111.37184596061707,57.59,111.24,68.76,2370.00,0.00
111.4438910484314,60.75,121.00,59.00,1350.00,0.00
111.51594614982605,65.03,129.74,50.26,3614.00,0.00
111.58754682540894,70.29,137.18,42.82,3342.00,0.00
111.65924382209778,76.35,143.08,36.92,764.00,0.00
111.73145294189453,82.93,147.20,32.80,2150.00,0.00
111.80365705490112,90.09,149.55,30.45,2884.00,0.00
111.87522792816162,97.31,149.90,30.10,1822.00,0.00
111.94795608520508,104.46,148.30,31.70,3412.00,0.00
112.02006793022156,111.30,144.79,35.21,3198.00,0.00
112.0921618938446,117.61,139.50,40.50,2002.00,0.00
112.16455507278442,123.18,132.59,47.41,2660.00,0.00
112.23627877235413,127.83,124.28,55.72,2946.00,0.00
112.30847191810608,131.40,114.86,65.14,3222.00,0.00
112.38032007217407,133.79,104.63,75.37,1114.00,0.00
112.45188474655151,134.91,93.92,86.08,4172.00,0.00
112.52362394332886,134.73,83.08,96.92,984.00,0.00
112.59592890739441,133.25,72.47,107.53,6118.00,0.00
112.66805386543274,130.53,62.43,117.57,2834.00,0.00
112.7400438785553,126.64,53.29,126.71,2546.00,0.00
112.81213808059692,121.72,45.34,134.66,3802.00,0.00
112.88417911529541,115.92,38.86,141.14,4028.00,0.00
112.95636701583862,109.44,34.05,145.95,2798.00,0.00
113.02831697463989,102.50,31.06,148.94,4410.00,0.00
113.09962296485901,95.20,30.00,150.00,4506.00,0.00
113.17188382148743,88.10,30.90,149.10,3150.00,0.00
113.24389696121216,81.12,33.73,146.27,4690.00,0.00
113.31635904312134,74.51,38.47,141.53,3466.00,0.00
113.387766122818,68.74,44.74,135.26,4164.00,0.00
113.46004486083984,63.74,52.57,127.43,2324.00,0.00
113.53185176849365,59.71,61.76,118.24,4850.00,0.00
113.60373997688293,56.93,71.60,108.40,7032.00,0.00
113.67526578903198,55.34,82.18,97.82,5682.00,0.00
113.7471981048584,55.05,93.01,86.99,3510.00,0.00
113.81891703605652,56.04,103.60,76.40,714.00,0.00
113.89131593704224,58.35,114.04,65.96,3612.00,0.00
113.96340680122375,61.83,123.54,56.46,2878.00,0.00
114.03539681434631,66.33,131.84,48.16,1572.00,0.00
114.107097864151,71.82,138.89,41.11,2386.00,0.00
114.17910695075989,78.15,144.42,35.58,1926.00,0.00
114.25097393989563,84.96,148.08,31.92,2668.00,0.00
114.32305598258972,91.99,149.83,30.17,2156.00,0.00
114.39439082145691,99.21,149.67,30.33,566.00,0.00
114.46735095977783,106.40,147.51,32.49,1612.00,0.00
114.53956198692322,113.03,143.56,36.44,1304.00,0.00
114.61208295822144,119.24,137.73,42.27,1576.00,0.00
114.68386173248291,124.57,130.41,49.59,1652.00,0.00
114.7560179233551,128.88,121.89,58.11,2396.00,0.00
114.82770895957947,132.19,112.09,67.91,2628.00,0.00
114.89981389045715,134.23,101.69,78.31,2126.00,0.00
114.97189593315125,135.00,90.90,89.10,3566.00,0.00
115.04300713539124,134.45,80.09,99.91,646.00,0.00
115.11614489555359,132.62,69.60,110.40,1880.00,0.00
115.18824577331543,129.56,59.78,120.22,2252.00,0.00
115.26028394699097,125.37,50.95,129.05,3280.00,0.00
115.33212494850159,120.19,43.39,136.61,2468.00,0.00
115.40461993217468,114.09,37.28,142.72,3916.00,0.00
115.47667598724365,107.55,33.03,146.97,4768.00,0.00
115.54849100112915,100.41,30.55,149.45,3034.00,0.00
115.6203830242157,93.19,30.06,149.94,3546.00,0.00
115.69229793548584,86.13,31.49,148.51,4538.00,0.00
115.76429486274719,79.16,34.90,145.10,3830.00,0.00
115.83621883392334,72.81,40.08,139.92,3404.00,0.00
115.90841674804688,67.25,46.78,133.22,4572.00,0.00
115.9804060459137,62.46,55.10,124.90,4816.00,0.00
116.05248498916626,58.81,64.45,115.55,2762.00,0.00
116.12413501739502,56.36,74.50,105.50,2768.00,0.00
116.19539999961853,55.13,85.18,94.82,3120.00,0.00
116.26745200157166,55.21,96.17,83.83,3018.00,0.00
116.33933591842651,56.57,106.67,73.33,918.00,0.00
116.41162085533142,59.20,116.77,63.23,3398.00,0.00
116.4836938381195,63.00,126.00,54.00,3956.00,0.00
116.55574798583984,67.91,134.15,45.85,2464.00,0.00
116.62802600860596,73.57,140.66,39.34,3974.00,0.00
116.69942307472229,80.00,145.62,34.38,2438.00,0.00
116.77167296409607,86.91,148.76,31.24,3402.00,0.00
116.84250402450562,94.10,149.98,30.02,632.00,0.00
116.91472482681274,101.31,149.25,30.75,764.00,0.00
116.98753690719604,108.31,146.58,33.42,3090.00,0.00
117.06018590927124,114.88,142.06,37.94,1102.00,0.00
117.13228297233582,120.81,135.84,44.16,2536.00,0.00
117.20379495620728,125.95,128.01,51.99,902.00,0.00
117.2763090133667,129.95,119.17,60.83,2074.00,0.00
117.34841203689575,132.88,109.26,70.74,3444.00,0.00
117.41984605789185,134.59,98.57,81.43,1612.00,0.00
117.49221587181091,134.98,87.89,92.11,1544.00,0.00
117.56460976600647,134.07,77.13,102.87,1144.00,0.00
117.63653993606567,131.85,66.66,113.34,2242.00,0.00
117.7086238861084,128.45,57.09,122.91,1970.00,0.00
117.78113889694214,123.95,48.60,131.40,2714.00,0.00
117.85281705856323,118.51,41.46,138.54,4264.00,0.00
117.92510080337524,112.30,35.90,144.10,5478.00,0.00
117.9970109462738,105.53,32.12,147.88,1324.00,0.00
118.06872200965881,98.41,30.22,149.78,3218.00,0.00
118.1406638622284,91.09,30.29,149.71,1052.00,0.00
118.21282887458801,84.08,32.28,147.72,2998.00,0.00
118.2848289012909,77.33,36.17,143.83,2858.00,0.00
118.35683703422546,71.08,41.91,138.09,3306.00,0.00
118.42857193946838,65.77,49.04,130.96,4070.00,0.00
118.50083112716675,61.34,57.60,122.40,4184.00,0.00
118.57283282279968,57.96,67.35,112.65,5430.00,0.00
118.64477610588074,55.85,77.72,102.28,6826.00,0.00
118.71606993675232,55.02,88.34,91.66,2684.00,0.00
118.78808689117432,55.47,99.16,80.84,2842.00,0.00
118.86055779457092,57.25,109.83,70.17,2336.00,0.00
118.9322259426117,60.19,119.56,60.44,2516.00,0.00
119.00343298912048,64.31,128.48,51.52,754.00,0.00
119.07587385177612,69.43,136.13,43.87,2444.00,0.00
119.14810395240784,75.38,142.29,37.71,4246.00,0.00
119.22020196914673,81.97,146.73,33.27,2176.00,0.00
119.29228401184082,88.99,149.32,30.68,2922.00,0.00
119.36397385597229,96.11,149.98,30.02,2572.00,0.00
119.43617582321167,103.38,148.67,31.33,616.00,0.00
119.508633852005,110.28,145.45,34.55,3044.00,0.00
119.58031487464905,116.69,140.42,39.58,888.00,0.00
119.65307879447937,122.38,133.74,46.26,3376.00,0.00
119.72509813308716,127.18,125.63,54.37,2120.00,0.00
119.7969298362732,130.98,116.23,63.77,1616.00,0.00
119.86941695213318,133.51,106.23,73.77,2644.00,0.00
119.94089889526367,134.84,95.42,84.58,1648.00,0.00
120.01301383972168,134.84,84.58,95.42,2484.00,0.00
120.08509588241577,133.56,74.06,105.94,866.00,0.00
