Used Foils:,stiff_foils
Waterspeed:,0.0
Frequency:,0.8
Heave Amplitude:,40
Pitch Amplitude:,75
Camber Amplitude,90
Pitch Phase,0
Camber Phase,0
Turn Rate,0
Test Duration,10

Time,Heave_pos,Pitch_right,Pitch_left,Power_consumption,Noise
120.15715885162354,130.98,63.77,116.23,2182.00,0.00
120.22928810119629,127.24,54.49,125.51,3076.00,0.00
120.30185675621033,122.53,46.47,133.53,1146.00,0.00
120.37377285957336,116.77,39.67,140.33,4604.00,0.00
120.44563293457031,110.38,34.61,145.39,4018.00,0.00
120.51818490028381,103.48,31.36,148.64,3394.00,0.00
120.58959078788757,96.31,30.03,149.97,3670.00,0.00
120.66155099868774,88.99,30.68,149.32,3110.00,0.00
120.73372387886047,82.07,33.22,146.78,3702.00,0.00
120.80615782737732,75.47,37.64,142.36,4420.00,0.00
120.87767100334167,69.43,43.87,136.13,3382.00,0.00
120.94987607002258,64.31,51.52,128.48,4372.00,0.00
121.0215699672699,60.24,60.31,119.69,3922.00,0.00
121.09352087974548,57.21,70.32,109.68,3476.00,0.00
122.16572976112366,55.00,90.15,89.85,1094.00,0.00
122.23798894882202,57.66,116.91,63.09,6400.00,0.00
122.3100597858429,65.03,139.67,40.33,7612.00,0.00
122.38200879096985,76.35,156.35,23.65,6340.00,0.00
122.45357990264893,90.29,164.48,15.52,6144.00,0.00
122.52648091316223,104.46,162.87,17.13,2460.00,0.00
122.59812307357788,117.61,151.87,28.13,2946.00,0.00
122.67045474052429,127.94,132.55,47.45,6966.00,0.00
122.74254894256592,133.84,107.92,72.08,4942.00,0.00
122.81370496749878,134.73,81.35,98.65,6380.00,0.00
122.88636875152588,130.43,55.20,124.80,6744.00,0.00
122.95856094360352,121.57,33.93,146.07,7288.00,0.00
123.03056907653809,109.44,20.06,159.94,7046.00,0.00
123.10133481025696,95.10,15.00,165.00,5138.00,0.00
123.17343401908875,80.93,19.79,160.21,3870.00,0.00
123.24550485610962,68.74,33.43,146.57,3536.00,0.00
123.31786704063416,59.66,54.86,125.14,7432.00,0.00
123.38938188552856,55.32,80.60,99.40,6442.00,0.00
123.46140599250793,56.06,107.19,72.81,7232.00,0.00
123.5333640575409,61.83,131.92,48.08,5388.00,0.00
123.60552883148193,72.06,151.44,28.56,6248.00,0.00
123.67758798599243,84.96,162.60,17.40,5950.00,0.00
123.74956393241882,99.31,164.56,15.44,5922.00,0.00
123.82197785377502,113.11,156.87,23.13,2562.00,0.00
123.89438080787659,124.70,140.23,39.77,3562.00,0.00
123.96636390686035,132.19,117.61,62.39,2750.00,0.00
124.03753995895386,135.00,90.75,89.25,5866.00,0.00
124.10995578765869,132.55,64.15,115.85,5918.00,0.00
124.18254280090332,125.37,41.18,138.82,7120.00,0.00
124.25456500053406,114.01,24.01,155.99,6920.00,0.00
124.32655096054077,100.31,15.66,164.34,5450.00,0.00
124.3982298374176,85.93,16.95,163.05,4590.00,0.00
124.47016787528992,72.72,27.71,152.29,5518.00,0.00
124.54233193397522,62.40,46.53,133.47,7216.00,0.00
124.61443901062012,56.31,70.98,109.02,7300.00,0.00
124.68554782867432,55.22,97.90,82.10,6586.00,0.00
124.75806283950806,59.29,123.80,56.20,5528.00,0.00
124.83008790016174,67.84,145.06,34.94,6724.00,0.00
124.9022159576416,80.18,159.66,20.34,6340.00,0.00
124.9742579460144,94.30,164.99,15.01,6662.00,0.00
125.04644799232483,108.50,160.60,19.40,2124.00,0.00
125.11891007423401,120.96,147.06,32.94,3666.00,0.00
125.19053912162781,130.05,126.13,53.87,6420.00,0.00
125.26248407363892,134.63,100.15,79.85,5288.00,0.00
125.33473014831543,134.03,73.55,106.45,5394.00,0.00
125.4070360660553,128.28,48.39,131.61,7226.00,0.00
125.4791030883789,118.27,28.99,151.01,7180.00,0.00
125.55102896690369,105.43,17.60,162.40,7366.00,0.00
125.62275791168213,90.89,15.40,164.60,5292.00,0.00
125.69476199150085,77.06,22.96,157.04,4866.00,0.00
125.76690793037415,65.70,38.93,141.07,4962.00,0.00
125.83894205093384,57.88,62.04,117.96,7592.00,0.00
125.910227060318,55.01,88.49,91.51,6212.00,0.00
125.9823989868164,57.31,115.14,64.86,6630.00,0.00
126.05467510223389,64.37,138.24,41.76,6384.00,0.00
126.12630200386047,75.64,155.63,24.37,6638.00,0.00
126.19835305213928,89.29,164.23,15.77,6898.00,0.00
126.27108192443848,103.48,163.30,16.70,5986.00,0.00
126.34332489967346,116.94,152.71,27.29,2878.00,0.00
126.41564607620239,127.36,134.08,45.92,3158.00,0.00
126.48768997192383,133.59,109.74,70.26,3050.00,0.00
126.55933594703674,134.82,82.85,97.15,5538.00,0.00
126.63188099861145,130.80,56.54,123.46,5686.00,0.00
126.70411086082458,122.31,35.20,144.80,6222.00,0.00
126.77605199813843,110.00,20.48,159.52,6712.00,0.00
126.84786891937256,95.90,15.02,164.98,5706.00,0.00
126.92031073570251,81.88,19.15,160.85,3074.00,0.00
126.99195885658264,69.19,32.70,147.30,6170.00,0.00
127.06392002105713,60.05,53.54,126.46,7376.00,0.00
127.13599395751953,55.42,79.11,100.89,7020.00,0.00
127.20759892463684,55.93,106.08,73.92,6934.00,0.00
127.27914786338806,61.50,130.98,49.02,5686.00,0.00
127.35114288330078,71.41,150.57,29.43,7380.00,0.00
127.42318606376648,84.18,162.20,17.80,5496.00,0.00
127.49514889717102,98.71,164.68,15.32,5646.00,0.00
127.5679178237915,112.57,157.37,22.63,2660.00,0.00
127.64027714729309,124.16,141.34,38.66,2602.00,0.00
127.71227192878723,131.96,118.66,61.34,6518.00,0.00
127.78394389152527,134.99,91.88,88.12,4726.00,0.00
127.85662078857422,132.82,65.57,114.43,4856.00,0.00
127.92871499061584,125.76,42.05,137.95,5822.00,0.00
128.00070786476135,114.53,24.55,155.45,6766.00,0.00
128.07276606559753,101.11,15.88,164.12,7432.00,0.00
128.14437103271484,86.52,16.70,163.30,1662.00,0.00
128.21658897399902,73.23,27.08,152.92,4748.00,0.00
128.28848385810852,62.76,45.61,134.39,6908.00,0.00
128.36062693595886,56.46,69.89,110.11,7700.00,0.00
128.43200397491455,55.16,96.78,83.22,6838.00,0.00
128.50468373298645,59.02,122.78,57.22,6272.00,0.00
128.57673001289368,67.40,144.28,35.72,7344.00,0.00
128.64886474609375,79.62,159.24,20.76,7534.00,0.00
128.72085213661194,93.69,164.96,15.04,6564.00,0.00
128.7934160232544,107.93,160.97,19.03,5282.00,0.00
128.86556100845337,120.50,147.79,32.21,1622.00,0.00
128.93788504600525,129.86,126.79,53.21,5142.00,0.00
129.0099229812622,134.52,101.64,78.36,4490.00,0.00
129.08197689056396,134.15,74.65,105.35,5348.00,0.00
129.15405702590942,128.61,49.34,130.66,4840.00,0.00
129.22641110420227,118.75,29.66,150.34,5878.00,0.00
129.2979600429535,105.82,17.80,162.20,5302.00,0.00
129.3696358203888,91.49,15.29,164.71,4794.00,0.00
129.4416708946228,77.61,22.46,157.54,4004.00,0.00
129.5138828754425,65.98,38.38,141.62,7582.00,0.00
129.58614897727966,58.11,60.99,119.01,6340.00,0.00
129.65753293037415,55.02,87.36,92.64,7510.00,0.00
129.730122089386,57.12,114.07,65.93,7176.00,0.00
129.80178499221802,64.12,137.66,42.34,6390.00,0.00
129.87360286712646,75.12,155.08,24.92,6358.00,0.00
129.94564008712769,88.49,164.00,16.00,5796.00,0.00
130.01800990104675,103.09,163.45,16.55,5866.00,0.00
130.09028792381287,116.43,153.32,26.68,3008.00,0.00
